SpectraSuite Data File
++++++++++++++++++++++++++++++++++++
Date: Wed Apr 28 12:37:58 CEST 2010
User: Katia
Dark Spectrum Present: No
Reference Spectrum Present: No
Number of Sampled Component Spectra: 1
Spectrometers: USB4A00444
Integration Time (usec): 500000 (USB4A00444)
Spectra Averaged: 1 (USB4A00444)
Boxcar Smoothing: 3 (USB4A00444)
Correct for Electrical Dark: No (USB4A00444)
Strobe/Lamp Enabled: No (USB4A00444)
Correct for Detector Non-linearity: No (USB4A00444)
Correct for Stray Light: No (USB4A00444)
Number of Pixels in Processed Spectrum: 3648
>>>>>Begin Processed Spectral Data<<<<<
346,32	33742,33
346,54	33742,33
346,75	33742,33
346,97	15176,33
347,18	10639,78
347,40	6097,97
347,61	1462,54
347,83	1504,67
348,04	1588,05
348,26	1688,40
348,47	1668,22
348,69	1582,79
348,90	1553,53
349,12	1644,81
349,33	1639,25
349,55	1712,39
349,76	1875,94
349,98	2133,69
350,19	2371,84
350,41	2541,53
350,62	2777,34
350,84	3125,20
351,05	3341,70
351,27	3418,35
351,48	3637,19
351,70	3901,09
351,91	4097,99
352,12	4257,14
352,34	4492,37
352,55	4771,47
352,77	5011,67
352,98	5188,38
353,20	5497,92
353,41	5886,15
353,63	6180,48
353,84	6436,77
354,06	6826,46
354,27	7322,37
354,49	7765,60
354,70	8116,98
354,91	8615,51
355,13	9200,06
355,34	9781,39
355,56	10324,40
355,77	10964,53
355,99	11641,82
356,20	12361,83
356,42	13079,79
356,63	14028,29
356,85	15046,72
357,06	16025,65
357,27	17006,63
357,49	18226,92
357,70	19488,18
357,92	20739,78
358,13	21982,02
358,35	23487,28
358,56	25031,74
358,78	26689,71
358,99	28423,17
359,20	30397,71
359,42	32592,54
359,63	34777,73
359,85	36909,96
360,06	39327,14
360,28	41807,53
360,49	44364,27
360,70	46954,95
360,92	49822,40
361,13	52887,33
361,35	55945,83
361,56	58632,47
361,78	60956,03
361,99	62844,55
362,20	64298,90
362,42	65126,58
362,63	65497,84
362,85	65535,00
363,06	65535,00
363,28	65535,00
363,49	65535,00
363,70	65535,00
363,92	65535,00
364,13	65535,00
364,35	65535,00
364,56	65535,00
364,77	65535,00
364,99	65535,00
365,20	65535,00
365,42	65535,00
365,63	65535,00
365,84	65535,00
366,06	65535,00
366,27	65535,00
366,49	65535,00
366,70	65535,00
366,92	65535,00
367,13	65535,00
367,34	65535,00
367,56	65535,00
367,77	65535,00
367,98	65535,00
368,20	65535,00
368,41	65535,00
368,63	65535,00
368,84	65535,00
369,05	65535,00
369,27	65535,00
369,48	65535,00
369,70	65535,00
369,91	65535,00
370,12	65535,00
370,34	65535,00
370,55	65535,00
370,77	65535,00
370,98	65535,00
371,19	65535,00
371,41	65535,00
371,62	65535,00
371,83	65535,00
372,05	65535,00
372,26	65535,00
372,48	65535,00
372,69	65535,00
372,90	65535,00
373,12	65535,00
373,33	65535,00
373,54	65535,00
373,76	65535,00
373,97	65535,00
374,18	65535,00
374,40	65535,00
374,61	65535,00
374,83	65535,00
375,04	65535,00
375,25	65535,00
375,47	65535,00
375,68	65535,00
375,89	65535,00
376,11	65535,00
376,32	65535,00
376,53	65535,00
376,75	65535,00
376,96	65535,00
377,17	65535,00
377,39	65535,00
377,60	65535,00
377,82	65535,00
378,03	65535,00
378,24	65535,00
378,46	65535,00
378,67	65535,00
378,88	65535,00
379,10	65535,00
379,31	65535,00
379,52	65535,00
379,74	65535,00
379,95	65535,00
380,16	65535,00
380,38	65535,00
380,59	65535,00
380,80	65535,00
381,02	65535,00
381,23	65535,00
381,44	65535,00
381,66	65535,00
381,87	65535,00
382,08	65535,00
382,30	65535,00
382,51	65535,00
382,72	65535,00
382,94	65535,00
383,15	65535,00
383,36	65535,00
383,58	65535,00
383,79	60045,57
384,00	56420,95
384,21	50301,04
384,43	43933,90
384,64	37609,48
384,85	31235,33
385,07	24669,25
385,28	23492,25
385,49	20386,36
385,71	19800,05
385,92	19345,11
386,13	18741,55
386,35	18096,73
386,56	17756,47
386,77	17422,95
386,98	16972,39
387,20	16442,26
387,41	16039,40
387,62	15733,37
387,84	15398,97
388,05	14803,89
388,26	14377,03
388,48	14139,47
388,69	13758,25
388,90	13314,72
389,11	12891,09
389,33	12612,27
389,54	12357,74
389,75	11987,64
389,97	11660,26
390,18	11462,77
390,39	11256,22
390,60	11022,46
390,82	10804,50
391,03	10602,04
391,24	10406,61
391,46	10063,13
391,67	9894,91
391,88	9712,64
392,09	9479,75
392,31	9211,47
392,52	9010,48
392,73	8874,14
392,94	8710,30
393,16	8445,53
393,37	8320,90
393,58	8219,08
393,80	8003,17
394,01	7840,21
394,22	7655,01
394,43	7637,46
394,65	7505,22
394,86	7311,25
395,07	7201,54
395,28	7211,78
395,50	7078,37
395,71	6960,46
395,92	6850,46
396,13	6758,30
396,35	6604,11
396,56	6385,27
396,77	6243,67
396,98	6225,82
397,20	6080,71
397,41	5892,88
397,62	5920,68
397,83	5885,28
398,05	5849,58
398,26	5700,08
398,47	5620,21
398,68	5603,83
398,90	5538,59
399,11	5339,05
399,32	5316,82
399,53	5294,58
399,75	5247,48
399,96	5146,84
400,17	5107,05
400,38	5148,89
400,60	5095,05
400,81	4995,00
401,02	4963,98
401,23	5003,19
401,44	4949,36
401,66	4859,83
401,87	4836,42
402,08	4880,89
402,29	4844,91
402,51	4761,23
402,72	4732,56
402,93	4797,51
403,14	4777,91
403,36	4640,40
403,57	4636,31
403,78	4724,08
403,99	4693,07
404,20	4577,21
404,42	4554,68
404,63	4543,27
404,84	4511,09
405,05	4367,15
405,26	4287,86
405,48	4311,85
405,69	4298,39
405,90	4165,28
406,11	4201,26
406,32	4203,02
406,54	4224,08
406,75	4163,81
406,96	4164,69
407,17	4299,27
407,38	4319,17
407,60	4245,15
407,81	4374,46
408,02	4441,75
408,23	4413,37
408,44	4346,37
408,66	4284,35
408,87	4326,48
409,08	4316,24
409,29	4160,59
409,50	4134,56
409,72	4210,62
409,93	4212,38
410,14	4126,07
410,35	4122,56
410,56	4253,63
410,78	4298,10
410,99	4212,09
411,20	4251,29
411,41	4327,36
411,62	4331,75
411,83	4270,31
412,05	4196,29
412,26	4219,99
412,47	4251,00
412,68	4140,41
412,89	4146,26
413,10	4190,73
413,32	4186,93
413,53	4116,12
413,74	4143,63
413,95	4178,44
414,16	4201,26
414,37	4106,76
414,59	4141,87
414,80	4218,82
415,01	4243,98
415,22	4154,16
415,43	4179,61
415,64	4182,83
415,86	4198,34
416,07	4123,44
416,28	4190,14
416,49	4293,71
416,70	4307,76
416,91	4245,44
417,12	4322,97
417,34	4393,77
417,55	4395,53
417,76	4260,36
417,97	4299,56
418,18	4382,65
418,39	4390,84
418,60	4297,81
418,82	4351,06
419,03	4447,90
419,24	4450,24
419,45	4309,80
419,66	4284,64
419,87	4360,13
420,08	4344,91
420,30	4249,54
420,51	4255,09
420,72	4389,09
420,93	4396,40
421,14	4357,78
421,35	4382,36
421,56	4453,45
421,77	4403,72
421,99	4296,05
422,20	4312,44
422,41	4413,08
422,62	4392,02
422,83	4303,95
423,04	4304,25
423,25	4435,90
423,46	4462,23
423,68	4366,85
423,89	4344,91
424,10	4440,58
424,31	4429,46
424,52	4376,51
424,73	4395,82
424,94	4435,61
425,15	4384,12
425,36	4313,02
425,58	4358,08
425,79	4464,57
426,00	4493,83
426,21	4416,01
426,42	4452,87
426,63	4557,61
426,84	4577,21
427,05	4455,79
427,26	4429,17
427,47	4458,72
427,69	4448,48
427,90	4369,78
428,11	4357,49
428,32	4462,52
428,53	4465,45
428,74	4406,94
428,95	4463,40
429,16	4532,45
429,37	4536,84
429,58	4478,91
429,79	4430,63
430,00	4488,85
430,22	4535,67
430,43	4436,19
430,64	4456,38
430,85	4555,27
431,06	4580,43
431,27	4547,66
431,48	4576,63
431,69	4565,51
431,90	4619,63
432,11	4569,90
432,32	4605,88
432,53	4725,83
432,74	4709,74
432,95	4672,29
433,17	4802,19
433,38	4839,64
433,59	4836,72
433,80	4741,63
434,01	4729,93
434,22	4806,29
434,43	4802,78
434,64	4705,65
434,85	4726,42
435,06	4778,20
435,27	4776,45
435,48	4689,85
435,69	4825,60
435,90	4961,35
436,11	4940,58
436,32	4906,64
436,53	4963,11
436,74	5043,27
436,96	5057,61
437,17	4889,67
437,38	4884,11
437,59	4913,95
437,80	4923,90
438,01	4847,25
438,22	4889,38
438,43	4943,50
438,64	4982,71
438,85	4915,12
439,06	5010,79
439,27	5068,43
439,48	5077,21
439,69	4983,29
439,90	5012,55
440,11	5044,73
440,32	5037,13
440,53	4982,42
440,74	5038,00
440,95	5063,75
441,16	5094,47
441,37	5057,90
441,58	5090,37
441,79	5140,40
442,00	5153,27
442,21	5070,77
442,42	5148,59
442,63	5193,06
442,84	5184,29
443,05	5100,32
443,26	5101,78
443,47	5182,24
443,68	5165,27
443,89	5101,49
444,10	5114,36
444,31	5152,98
444,52	5154,74
444,73	5113,19
444,94	5062,29
445,15	5157,66
445,36	5150,06
445,57	5087,74
445,78	5121,97
445,99	5194,53
446,20	5194,53
446,41	5125,48
446,62	5080,72
446,83	5123,43
447,04	5138,65
447,25	5063,75
447,46	5088,91
447,67	5117,00
447,88	5123,43
448,09	5083,94
448,30	5084,81
448,51	5148,89
448,72	5139,52
448,93	5041,22
449,14	5060,53
449,35	5093,30
449,56	5072,82
449,77	5046,78
449,98	5060,82
450,19	5142,16
450,40	5136,01
450,61	5077,21
450,82	5100,03
451,03	5128,41
451,24	5083,64
451,45	4984,17
451,66	4961,64
451,87	5051,46
452,08	5043,56
452,29	4985,93
452,50	5050,00
452,71	5158,54
452,92	5151,81
453,13	5094,18
453,34	5098,86
453,55	5125,19
453,76	5130,16
453,96	5043,56
454,17	4978,61
454,38	5064,92
454,59	5090,67
454,80	5010,50
455,01	5078,96
455,22	5219,98
455,43	5227,00
455,64	5147,42
455,85	5111,73
456,06	5145,67
456,27	5140,99
456,48	5073,11
456,69	5002,60
456,90	5089,49
457,11	5125,19
457,32	5079,84
457,53	5104,42
457,73	5239,00
457,94	5253,04
458,15	5159,13
458,36	5142,45
458,57	5220,86
458,78	5236,66
458,99	5169,37
459,20	5123,14
459,41	5121,38
459,62	5136,01
459,83	5048,54
460,04	5059,65
460,25	5138,35
460,45	5098,86
460,66	5007,28
460,87	5093,88
461,08	5167,61
461,29	5206,52
461,50	5142,74
461,71	5133,97
461,92	5209,74
462,13	5245,73
462,34	5136,31
462,55	5133,97
462,76	5214,13
462,96	5216,18
463,17	5151,52
463,38	5181,07
463,59	5275,86
463,80	5288,73
464,01	5251,28
464,22	5272,35
464,43	5334,67
464,64	5340,22
464,85	5269,42
465,05	5227,88
465,26	5283,17
465,47	5286,69
465,68	5157,96
465,89	5248,65
466,10	5287,27
466,31	5330,28
466,52	5264,16
466,73	5314,77
466,93	5359,83
467,14	5374,75
467,35	5244,56
467,56	5311,26
467,77	5291,66
467,98	5331,74
468,19	5221,74
468,40	5238,70
468,60	5386,45
468,81	5392,59
469,02	5322,09
469,23	5438,82
469,44	5495,29
469,65	5506,70
469,86	5450,82
470,07	5430,92
470,27	5483,58
470,48	5497,33
470,69	5395,23
470,90	5437,36
471,11	5496,46
471,32	5561,41
471,53	5497,04
471,73	5555,26
471,94	5605,58
472,15	5627,23
472,36	5552,63
472,57	5647,13
472,78	5685,75
472,99	5685,75
473,19	5573,69
473,40	5596,51
473,61	5648,88
473,82	5657,37
474,03	5548,83
474,24	5512,84
474,44	5551,46
474,65	5602,07
474,86	5526,30
475,07	5600,02
475,28	5630,16
475,49	5632,79
475,69	5607,05
475,90	5635,13
476,11	5679,60
476,32	5702,13
476,53	5607,34
476,74	5645,08
476,94	5736,95
477,15	5760,94
477,36	5702,42
477,57	5775,27
477,78	5830,86
477,99	5849,00
478,19	5788,73
478,40	5794,29
478,61	5847,54
478,82	5875,62
479,03	5801,90
479,23	5815,35
479,44	5879,13
479,65	5882,64
479,86	5832,61
480,07	5830,86
480,28	5845,20
480,48	5852,80
480,69	5783,17
480,90	5824,42
481,11	5902,83
481,32	5915,12
481,52	5844,90
481,73	5926,53
481,94	5903,12
482,15	5959,00
482,36	5859,24
482,56	5860,99
482,77	5863,33
482,98	5870,06
483,19	5773,52
483,40	5855,44
483,60	5913,07
483,81	5919,51
484,02	5877,96
484,23	5918,92
484,43	6006,40
484,64	6018,69
484,85	5928,58
485,06	5971,29
485,27	6024,25
485,47	6036,53
485,68	6010,20
485,89	6020,15
486,10	6104,99
486,31	6114,36
486,51	5999,67
486,72	6002,01
486,93	6034,78
487,14	6013,71
487,34	5954,62
487,55	5933,55
487,76	6003,77
487,97	6054,67
488,17	5979,48
488,38	5999,67
488,59	6104,99
488,80	6099,14
489,00	6015,18
489,21	6046,77
489,42	6014,88
489,63	6051,75
489,84	5965,44
490,04	5892,30
490,25	5959,59
490,46	5987,09
490,67	5875,33
490,87	5944,08
491,08	6045,60
491,29	6098,85
491,50	6097,10
491,70	6104,70
491,91	6149,17
492,12	6209,15
492,32	6125,77
492,53	6098,56
492,74	6140,10
492,95	6096,80
493,15	6030,39
493,36	6081,00
493,57	6097,68
493,78	6117,87
493,98	5992,06
494,19	5979,19
494,40	6016,05
494,61	6027,76
494,81	5953,45
495,02	5951,10
495,23	6020,74
495,43	6068,72
495,64	6003,47
495,85	6011,96
496,06	6073,69
496,26	6028,05
496,47	5942,62
496,68	5963,68
496,89	6018,10
497,09	6029,51
497,30	5995,28
497,51	5971,88
497,71	6014,88
497,92	6033,02
498,13	5906,05
498,33	5889,08
498,54	5931,21
498,75	5893,47
498,96	5824,42
499,16	5852,22
499,37	5903,71
499,58	5932,09
499,78	5853,68
499,99	5833,20
500,20	5906,63
500,40	5893,76
500,61	5809,50
500,82	5812,43
501,03	5845,78
501,23	5845,20
501,44	5799,55
501,65	5799,26
501,85	5854,26
502,06	5892,30
502,27	5794,00
502,47	5801,90
502,68	5884,40
502,89	5876,21
503,09	5799,26
503,30	5781,71
503,51	5814,48
503,71	5825,01
503,92	5710,91
504,13	5673,46
504,33	5690,43
504,54	5721,15
504,75	5664,10
504,95	5679,02
505,16	5722,32
505,37	5783,17
505,57	5736,95
505,78	5837,30
505,99	5830,57
506,19	5834,96
506,40	5719,39
506,61	5763,57
506,81	5818,86
507,02	5808,92
507,23	5669,95
507,43	5721,44
507,64	5809,50
507,85	5856,31
508,05	5739,58
508,26	5726,41
508,47	5812,14
508,67	5814,18
508,88	5752,16
509,09	5688,96
509,29	5695,40
509,50	5703,59
509,71	5573,40
509,91	5514,01
510,12	5504,35
510,32	5471,29
510,53	5410,73
510,74	5401,37
510,94	5507,87
511,15	5525,13
511,36	5454,03
511,56	5520,15
511,77	5555,26
511,98	5547,07
512,18	5471,59
512,39	5378,55
512,59	5408,69
512,80	5386,74
513,01	5300,14
513,21	5327,64
513,42	5369,77
513,63	5389,67
513,83	5341,98
514,04	5331,45
514,24	5385,28
514,45	5361,87
514,66	5235,78
514,86	5253,33
515,07	5279,96
515,27	5245,14
515,48	5171,12
515,69	5121,97
515,89	5127,24
516,10	5119,34
516,30	5014,01
516,51	4996,75
516,72	5063,46
516,92	5054,68
517,13	5039,76
517,33	5045,90
517,54	5127,53
517,75	5128,11
517,95	5093,30
518,16	5098,56
518,36	5173,75
518,57	5184,87
518,78	5121,97
518,98	5102,37
519,19	5158,54
519,39	5114,36
519,60	5038,88
519,81	5009,33
520,01	5075,74
520,22	5094,47
520,42	5015,48
520,63	5032,44
520,83	5111,14
521,04	5093,59
521,25	5026,01
521,45	4995,58
521,66	4960,47
521,86	4928,00
522,07	4844,03
522,27	4820,33
522,48	4912,20
522,69	4930,63
522,89	4813,31
523,10	4884,41
523,30	4959,89
523,51	4944,09
523,71	4872,70
523,92	4803,95
524,12	4875,04
524,33	4901,08
524,54	4844,62
524,74	4837,01
524,95	4906,35
525,15	4874,75
525,36	4845,20
525,56	4820,92
525,77	5117,00
525,97	5091,84
526,18	5031,86
526,39	5020,74
526,59	5134,26
526,80	5122,55
527,00	5030,69
527,21	4762,99
527,41	4832,62
527,62	4813,31
527,82	4719,69
528,03	4701,84
528,23	4765,62
528,44	4756,85
528,64	4695,70
528,85	4683,41
529,05	4761,23
529,26	4777,03
529,47	4683,12
529,67	4625,19
529,88	4668,49
530,08	4664,98
530,29	4571,94
530,49	4583,35
530,70	4643,33
530,90	4643,33
531,11	4578,09
531,31	4595,35
531,52	4649,18
531,72	4631,04
531,93	4569,60
532,13	4539,47
532,34	4586,28
532,54	4591,55
532,75	4514,89
532,95	4542,69
533,16	4608,81
533,36	4555,56
533,57	4491,78
533,77	4552,63
533,98	4602,37
534,18	4587,74
534,39	4477,44
534,59	4504,95
534,80	4627,53
535,00	4634,55
535,21	4488,56
535,41	4457,26
535,62	4480,96
535,82	4470,42
536,03	4364,22
536,23	4256,56
536,44	4258,90
536,64	4266,80
536,85	4231,69
537,05	4261,53
537,26	4315,36
537,46	4300,44
537,67	4256,26
537,87	4284,35
538,07	4324,43
538,28	4317,12
538,48	4246,90
538,69	4235,20
538,89	4303,07
539,10	4311,85
539,30	4241,05
539,51	4248,36
539,71	4283,47
539,92	4286,40
540,12	4228,76
540,33	4276,16
540,53	4324,72
540,74	4301,32
540,94	4246,02
541,14	4292,54
541,35	4346,96
541,55	4372,12
541,76	4246,32
541,96	4222,33
542,17	4341,69
542,37	4310,97
542,58	4222,03
542,78	4213,84
542,99	4223,50
543,19	4225,84
543,39	4167,32
543,60	4143,92
543,80	4235,20
544,01	4252,17
544,21	4169,08
544,42	4164,69
544,62	4219,99
544,82	4221,74
545,03	4127,24
545,23	4143,63
545,44	4218,23
545,64	4208,58
545,85	4126,36
546,05	4144,21
546,25	4196,29
546,46	4196,58
546,66	4094,77
546,87	4085,11
547,07	4119,93
547,28	4156,79
547,48	4054,39
547,68	4040,35
547,89	4058,78
548,09	4031,87
548,30	3928,88
548,50	4011,09
548,70	4057,90
548,91	4066,10
549,11	4018,99
549,32	4098,86
549,52	4124,32
549,72	4137,19
549,93	4007,87
550,13	4024,55
550,34	4093,89
550,54	4102,37
550,74	3967,79
550,95	3995,59
551,15	4035,38
551,36	4037,42
551,56	3980,08
551,76	4036,55
551,97	4062,58
552,17	4078,38
552,38	3990,03
552,58	4004,36
552,78	4082,48
552,99	4048,83
553,19	3906,06
553,40	3973,06
553,60	4028,06
553,80	4066,10
554,01	3968,09
554,21	3992,95
554,41	4033,04
554,62	4053,52
554,82	3932,39
555,03	3964,57
555,23	3988,27
555,43	3972,77
555,64	3849,01
555,84	3882,07
556,04	3923,03
556,25	3925,37
556,45	3803,08
556,65	3823,27
556,86	3926,54
557,06	3922,45
557,27	3830,58
557,47	3819,75
557,67	3868,91
557,88	3879,44
558,08	3775,28
558,28	3779,97
558,49	3767,09
558,69	3748,95
558,89	3662,65
559,10	3682,54
559,30	3724,38
559,50	3739,30
559,71	3632,22
559,91	3702,73
560,11	3743,10
560,32	3742,52
560,52	3636,61
560,72	3668,50
560,93	3769,73
561,13	3728,47
561,33	3669,96
561,54	3695,12
561,74	3709,75
561,94	3731,98
562,15	3639,83
562,35	3643,34
562,55	3738,71
562,76	3701,26
562,96	3657,38
563,16	3673,18
563,37	3685,47
563,57	3649,19
563,77	3509,63
563,98	3566,10
564,18	3578,39
564,38	3552,06
564,59	3523,38
564,79	3628,12
564,99	3719,99
565,19	3763,29
565,40	3582,48
565,60	3608,81
565,80	3630,46
566,01	3636,02
566,21	3506,42
566,41	3534,21
566,62	3543,86
566,82	3597,99
567,02	3572,83
567,23	3615,54
567,43	3663,23
567,63	3617,88
567,83	3506,42
568,04	3544,74
568,24	3626,95
568,44	3578,68
568,65	3497,93
568,85	3479,79
569,05	3526,89
569,25	3571,07
569,46	3450,83
569,66	3377,39
569,86	3450,83
570,07	3429,18
570,27	3345,50
570,47	3352,23
570,67	3349,89
570,88	3385,00
571,08	3328,83
571,28	3379,44
571,48	3442,34
571,69	3466,92
571,89	3431,23
572,09	3465,75
572,29	3543,28
572,50	3547,96
572,70	3427,13
572,90	3394,65
573,11	3445,56
573,31	3413,67
573,51	3313,03
573,71	3329,12
573,92	3380,32
574,12	3402,26
574,32	3363,06
574,52	3363,64
574,73	3398,46
574,93	3406,65
575,13	3271,78
575,33	3301,33
575,54	3332,05
575,74	3332,05
575,94	3230,23
576,14	3247,79
576,35	3278,21
576,55	3283,48
576,75	3191,32
576,95	3227,60
577,15	3285,53
577,36	3292,84
577,56	3225,26
577,76	3243,10
577,96	3301,91
578,17	3279,09
578,37	3179,62
578,57	3219,70
578,77	3264,75
578,97	3272,65
579,18	3217,07
579,38	3212,09
579,58	3322,98
579,78	3332,05
579,99	3225,84
580,19	3239,01
580,39	3285,82
580,59	3268,56
580,79	3187,81
581,00	3169,38
581,20	3236,08
581,40	3234,04
581,60	3187,81
581,80	3194,25
582,01	3242,81
582,21	3278,21
582,41	3171,72
582,61	3171,43
582,81	3269,73
583,02	3262,12
583,22	3176,40
583,42	3152,70
583,62	3231,40
583,82	3250,13
584,03	3177,28
584,23	3103,26
584,43	3176,40
584,63	3173,77
584,83	3102,67
585,04	3043,87
585,24	3074,88
585,44	3053,52
585,64	3018,41
585,84	3020,75
586,04	3117,01
586,25	3173,18
586,45	3117,30
586,65	3143,63
586,85	3208,58
587,05	3209,46
587,25	3101,21
587,46	3082,78
587,66	3082,78
587,86	3068,15
588,06	2991,79
588,26	2987,69
588,46	3031,58
588,67	3086,58
588,87	3003,20
589,07	3055,28
589,27	3092,14
589,47	3094,77
589,67	3019,88
589,88	2967,51
590,08	2978,92
590,28	2994,13
590,48	2917,48
590,68	2920,99
590,88	2966,92
591,08	2961,07
591,29	2940,88
591,49	2958,14
591,69	2971,90
591,89	2960,49
592,09	2934,74
592,29	2975,99
592,49	3020,75
592,70	3003,79
592,90	2926,25
593,10	2972,19
593,30	3026,31
593,50	3006,71
593,70	2908,12
593,90	2936,49
594,10	2972,48
594,31	2962,83
594,51	2889,10
594,71	2950,54
594,91	3007,00
595,11	2994,42
595,31	2907,24
595,51	2961,95
595,71	3021,05
595,92	3028,95
596,12	2916,60
596,32	2968,38
596,52	3015,49
596,72	3025,14
596,92	2928,01
597,12	2926,55
597,32	2983,89
597,52	2993,25
597,73	2894,07
597,93	2876,52
598,13	2925,96
598,33	2935,62
598,53	2862,18
598,73	2872,72
598,93	2865,11
599,13	2842,87
599,33	2833,80
599,53	2845,21
599,73	2894,07
599,94	2902,85
600,14	2808,35
600,34	2862,18
600,54	2927,13
600,74	2928,89
600,94	2844,92
601,14	2925,96
601,34	2987,99
601,54	2988,86
601,74	2908,70
601,94	2901,68
602,14	2894,07
602,35	2919,82
602,55	2785,82
602,75	2745,45
602,95	2813,32
603,15	2809,23
603,35	2737,84
603,55	2804,55
603,75	2844,92
603,95	2829,12
604,15	2831,46
604,35	2827,07
604,55	2861,60
604,75	2867,74
604,95	2796,06
605,15	2840,24
605,35	2901,09
605,55	2876,52
605,76	2795,48
605,96	2872,72
606,16	2914,55
606,36	2894,36
606,56	2772,36
606,76	2824,44
606,96	2847,26
607,16	2846,09
607,36	2725,55
607,56	2793,72
607,76	2865,11
607,96	2866,28
608,16	2741,35
608,36	2772,66
608,56	2822,10
608,76	2815,08
608,96	2704,78
609,16	2749,25
609,36	2777,05
609,56	2789,63
609,76	2695,13
609,96	2698,35
610,16	2764,17
610,36	2741,35
610,56	2626,67
610,76	2653,87
610,96	2676,40
611,16	2679,04
611,36	2585,41
611,56	2597,99
611,76	2662,07
611,96	2646,85
612,16	2585,41
612,36	2600,92
612,56	2688,40
612,76	2747,79
612,96	2637,49
613,16	2655,05
613,36	2678,45
613,56	2663,53
613,76	2617,89
613,96	2585,71
614,16	2655,05
614,36	2659,73
614,56	2582,49
614,76	2602,38
614,96	2691,91
615,16	2686,06
615,36	2643,93
615,56	2659,73
615,76	2774,71
615,96	2768,56
616,16	2693,37
616,36	2730,53
616,56	2772,36
616,76	2741,94
616,96	2644,22
617,16	2560,55
617,36	2619,64
617,56	2661,77
617,76	2554,99
617,96	2588,63
618,16	2656,51
618,36	2616,13
618,56	2579,27
618,76	2625,50
618,96	2628,71
619,16	2614,96
619,36	2542,11
619,56	2559,67
619,76	2592,44
619,96	2617,60
620,16	2494,72
620,36	2536,85
620,56	2587,46
620,76	2572,54
620,95	2489,45
621,15	2529,24
621,35	2549,72
621,55	2554,99
621,75	2486,23
621,95	2490,33
622,15	2548,84
622,35	2561,13
622,55	2462,24
622,75	2463,71
622,95	2514,61
623,15	2498,81
623,35	2441,18
623,55	2418,94
623,75	2400,80
623,95	2435,91
624,14	2411,63
624,34	2445,57
624,54	2467,51
624,74	2451,71
624,94	2413,97
625,14	2500,57
625,34	2604,72
625,54	2611,16
625,74	2497,64
625,94	2596,82
626,14	2653,00
626,34	2644,51
626,54	2554,40
626,73	2480,38
626,93	2478,63
627,13	2492,67
627,33	2344,92
627,53	2358,97
627,73	2458,44
627,93	2483,02
628,13	2437,67
628,33	2462,54
628,53	2504,37
628,72	2515,49
628,92	2418,36
629,12	2384,71
629,32	2444,69
629,52	2447,91
629,72	2367,74
629,92	2405,49
630,12	2475,41
630,32	2490,04
630,52	2384,13
630,71	2375,64
630,91	2411,34
631,11	2410,75
631,31	2301,92
631,51	2325,03
631,71	2356,92
631,91	2355,46
632,11	2246,62
632,30	2256,28
632,50	2322,10
632,70	2354,29
632,90	2244,57
633,10	2283,49
633,30	2316,25
633,50	2321,52
633,69	2281,73
633,89	2293,43
634,09	2324,15
634,29	2332,05
634,49	2243,99
634,69	2314,79
634,89	2382,37
635,09	2372,43
635,28	2294,31
635,48	2306,31
635,68	2363,06
635,88	2359,85
636,08	2253,94
636,28	2296,65
636,47	2345,51
636,67	2360,14
636,87	2301,92
637,07	2363,36
637,27	2402,27
637,47	2416,31
637,66	2305,72
637,86	2315,37
638,06	2371,84
638,26	2368,04
638,46	2249,55
638,66	2288,17
638,85	2337,32
639,05	2343,46
639,25	2268,86
639,45	2277,63
639,65	2320,35
639,85	2341,71
640,04	2257,74
640,24	2242,53
640,44	2326,79
640,64	2334,10
640,84	2269,73
641,04	2319,18
641,23	2338,78
641,43	2365,11
641,63	2317,13
641,83	2356,04
642,03	2475,99
642,22	2504,08
642,42	2401,39
642,62	2450,83
642,82	2511,69
643,02	2540,36
643,21	2407,24
643,41	2304,26
643,61	2337,61
643,81	2342,88
644,01	2231,70
644,20	2219,41
644,40	2317,13
644,60	2314,79
644,80	2308,94
645,00	2335,27
645,19	2389,10
645,39	2399,63
645,59	2324,15
645,79	2321,52
645,98	2388,22
646,18	2379,45
646,38	2275,29
646,58	2294,02
646,78	2342,58
646,97	2364,82
647,17	2231,70
647,37	2305,43
647,57	2325,32
647,76	2350,19
647,96	2266,22
648,16	2333,51
648,36	2372,13
648,55	2361,60
648,75	2248,08
648,95	2361,02
649,15	2424,80
649,35	2443,81
649,54	2329,42
649,74	2334,68
649,94	2423,62
650,14	2436,21
650,33	2308,65
650,53	2293,72
650,73	2362,19
650,93	2369,79
651,12	2325,32
651,32	2332,93
651,52	2335,56
651,71	2314,50
651,91	2230,82
652,11	2195,13
652,31	2242,82
652,50	2254,81
652,70	2177,58
652,90	2208,59
653,10	2266,52
653,29	2258,32
653,49	2224,39
653,69	2275,88
653,89	2303,67
654,08	2320,06
654,28	2241,65
654,48	2263,59
654,67	2311,57
654,87	2318,59
655,07	2188,69
655,27	2246,62
655,46	2313,91
655,66	2317,42
655,86	2231,41
656,05	2309,23
656,25	2350,19
656,45	2347,85
656,65	2233,46
656,84	2256,28
657,04	2291,97
657,24	2288,17
657,43	2160,02
657,63	2156,80
657,83	2254,23
658,02	2264,47
658,22	2169,38
658,42	2215,61
658,62	2258,91
658,81	2255,98
659,01	2208,00
659,21	2174,65
659,40	2186,94
659,60	2174,65
659,80	2095,95
659,99	2183,72
660,19	2263,01
660,39	2282,61
660,58	2250,43
660,78	2307,77
660,98	2345,51
661,17	2341,71
661,37	2196,30
661,57	2187,23
661,76	2239,89
661,96	2227,31
662,16	2174,07
662,35	2235,50
662,55	2251,89
662,75	2264,47
662,94	2203,03
663,14	2194,84
663,34	2279,68
663,53	2269,15
663,73	2155,63
663,93	2225,85
664,12	2291,68
664,32	2296,65
664,52	2208,88
664,71	2198,06
664,91	2251,89
665,11	2272,95
665,30	2176,41
665,50	2169,09
665,70	2225,56
665,89	2224,39
666,09	2145,69
666,29	2160,02
666,48	2188,11
666,68	2222,63
666,87	2172,89
667,07	2200,69
667,27	2313,03
667,46	2298,11
667,66	2214,15
667,86	2254,52
668,05	2293,72
668,25	2312,45
668,44	2206,54
668,64	2156,80
668,84	2220,88
669,03	2231,99
669,23	2151,83
669,43	2134,57
669,62	2191,33
669,82	2210,34
670,01	2154,17
670,21	2179,92
670,41	2227,90
670,60	2209,76
670,80	2136,32
670,99	2142,47
671,19	2195,13
671,39	2196,30
671,58	2121,40
671,78	2162,95
671,97	2262,42
672,17	2265,05
672,37	2147,73
672,56	2169,97
672,76	2216,78
672,95	2203,32
673,15	2092,73
673,35	2082,20
673,54	2144,22
673,74	2173,48
673,93	2082,78
674,13	2121,70
674,33	2175,82
674,52	2191,62
674,72	2143,05
674,91	2212,98
675,11	2266,22
675,30	2282,61
675,50	2179,92
675,70	2190,74
675,89	2231,12
676,09	2207,71
676,28	2083,37
676,48	2117,89
676,67	2202,44
676,87	2222,34
677,07	2163,83
677,26	2202,44
677,46	2277,63
677,65	2260,37
677,85	2132,81
678,04	2139,83
678,24	2227,60
678,43	2222,63
678,63	2126,08
678,83	2181,96
679,02	2293,72
679,22	2320,06
679,41	2213,27
679,61	2161,19
679,80	2214,73
680,00	2200,10
680,19	2083,66
680,39	2093,90
680,58	2162,36
680,78	2162,95
680,98	2134,28
681,17	2159,44
681,37	2229,65
681,56	2215,02
681,76	2089,51
681,95	2108,82
682,15	2149,78
682,34	2116,43
682,54	2037,44
682,73	2067,28
682,93	2127,55
683,12	2129,89
683,32	2022,81
683,51	2072,54
683,71	2182,55
683,90	2182,55
684,10	2089,51
684,29	2060,55
684,49	2090,39
684,68	2109,70
684,88	2183,72
685,07	2132,52
685,27	2207,42
685,46	2228,48
685,66	2186,06
685,85	2249,25
686,05	2302,79
686,24	2141,59
686,44	2083,95
686,63	2051,48
686,83	2074,01
687,02	2056,16
687,22	2003,79
687,41	2061,43
687,61	2131,06
687,80	2143,35
688,00	2089,81
688,19	2123,74
688,39	2263,01
688,58	2215,90
688,78	2095,95
688,97	2100,63
689,17	2137,49
689,36	2135,74
689,56	2052,94
689,75	2031,00
689,95	2098,58
690,14	2109,99
690,34	2001,16
690,53	2074,30
690,73	2126,38
690,92	2117,60
691,11	2015,79
691,31	2033,05
691,50	2057,33
691,70	2057,33
691,89	1938,26
692,09	1996,18
692,28	2079,27
692,48	2089,22
692,67	2016,96
692,87	2026,90
693,06	2161,48
693,25	2175,82
693,45	2041,24
693,64	2002,91
693,84	2078,98
694,03	2074,88
694,23	2032,17
694,42	2020,47
694,62	2061,43
694,81	2085,42
695,00	2030,71
695,20	1998,23
695,39	2031,29
695,59	2035,97
695,78	1941,18
695,98	1980,68
696,17	2025,15
696,36	2040,95
696,56	1971,90
696,75	2051,48
696,95	2128,13
697,14	2101,22
697,33	2022,81
697,53	2039,19
697,72	2079,57
697,92	2066,40
698,11	1948,20
698,31	1946,45
698,50	2006,13
698,69	1980,09
698,89	1925,09
699,08	1973,36
699,28	2046,80
699,47	2067,28
699,66	1977,17
699,86	1995,60
700,05	2074,59
700,25	2104,73
700,44	2014,32
700,63	2037,44
700,83	2064,94
701,02	2048,55
701,22	2001,45
701,41	1962,25
701,60	1998,23
701,80	1978,34
701,99	1878,87
702,18	1879,45
702,38	1958,44
702,57	1941,47
702,77	1908,71
702,96	1889,40
703,15	2005,55
703,35	2028,37
703,54	1975,70
703,73	1949,96
703,93	2021,93
704,12	2023,69
704,32	1961,08
704,51	1971,61
704,70	2012,28
704,90	2006,42
705,09	1958,74
705,28	1946,45
705,48	1976,87
705,67	1989,16
705,86	1863,65
706,06	1888,81
706,25	1961,66
706,44	1986,24
706,64	1917,19
706,83	1968,68
707,03	2024,86
707,22	2058,21
707,41	2001,45
707,61	2041,82
707,80	2093,02
707,99	2091,85
708,19	2026,32
708,38	2038,02
708,57	2074,88
708,77	2052,94
708,96	1960,49
709,15	1999,99
709,35	2108,82
709,54	2083,08
709,73	1995,31
709,93	1975,41
710,12	2044,17
710,31	2051,48
710,50	1948,79
710,70	1901,10
710,89	1965,46
711,08	1959,03
711,28	1916,31
711,47	1932,11
711,66	2007,01
711,86	1992,67
712,05	1969,56
712,24	1988,29
712,44	2059,96
712,63	2081,03
712,82	1999,99
713,02	1994,14
713,21	2061,13
713,40	2014,91
713,59	1916,02
713,79	1943,81
713,98	2009,94
714,17	2031,58
714,37	1945,57
714,56	1994,14
714,75	2168,51
714,94	2184,89
715,14	2084,83
715,33	2138,08
715,52	2196,01
715,72	2195,42
715,91	2093,61
716,10	2066,69
716,29	2119,06
716,49	2123,16
716,68	1998,52
716,87	2013,15
717,06	2067,57
717,26	2085,71
717,45	1945,28
717,64	1973,95
717,84	2047,09
718,03	2026,32
718,22	1932,70
718,41	1970,73
718,61	1983,60
718,80	2016,37
718,99	1917,19
719,18	1949,08
719,38	2025,44
719,57	2040,65
719,76	1933,58
719,95	2017,83
720,15	2026,03
720,34	2033,63
720,53	1929,77
720,72	1917,48
720,92	1950,54
721,11	1958,15
721,30	1830,59
721,49	1861,02
721,69	1904,32
721,88	1931,23
722,07	1871,55
722,26	1937,96
722,45	1998,52
722,65	2008,47
722,84	1942,94
723,03	1944,99
723,22	1956,69
723,42	1966,05
723,61	1850,78
723,80	1866,28
723,99	1925,38
724,18	1947,62
724,38	1912,22
724,57	1991,50
724,76	2043,58
724,95	2038,31
725,15	1946,16
725,34	2025,15
725,53	2029,24
725,72	2007,59
725,91	1880,33
726,11	1904,03
726,30	2013,74
726,49	2037,44
726,68	1897,30
726,87	1930,65
727,07	2022,22
727,26	2040,65
727,45	1948,20
727,64	1919,24
727,83	1989,46
728,03	2004,96
728,22	1956,40
728,41	1945,28
728,60	2015,79
728,79	2047,09
728,98	1971,02
729,18	1973,36
729,37	2054,70
729,56	2034,22
729,75	1982,43
729,94	1988,87
730,14	2027,49
730,33	2025,15
730,52	1936,79
730,71	1948,79
730,90	2019,30
731,09	2002,04
731,29	1914,85
731,48	1948,79
731,67	2040,36
731,86	2054,41
732,05	1924,80
732,24	1961,95
732,43	2087,47
732,63	2106,19
732,82	2000,28
733,01	1950,25
733,20	2003,50
733,39	2016,96
733,58	1915,14
733,78	1831,47
733,97	1860,14
734,16	1898,17
734,35	1848,44
734,54	1850,78
734,73	1919,82
734,92	1942,64
735,11	1901,10
735,31	1916,02
735,50	1978,05
735,69	1994,43
735,88	1927,43
736,07	1897,00
736,26	1954,93
736,45	1953,18
736,64	1893,79
736,84	1862,77
737,03	1979,80
737,22	1992,97
737,41	1949,67
737,60	1973,66
737,79	2075,76
737,98	2075,76
738,17	2010,23
738,37	1986,82
738,56	2058,79
738,75	2038,31
738,94	1931,53
739,13	1866,28
739,32	1955,23
739,51	1948,79
739,70	1853,12
739,89	1828,54
740,08	1892,91
740,28	1894,37
740,47	1855,17
740,66	1850,19
740,85	1887,64
741,04	1900,81
741,23	1850,19
741,42	1913,97
741,61	1966,64
741,80	1980,09
741,99	1887,35
742,18	1924,21
742,37	1962,54
742,57	1946,45
742,76	1847,56
742,95	1898,47
743,14	1952,01
743,33	1967,81
743,52	1899,05
743,71	1911,63
743,90	2002,33
744,09	1978,92
744,28	1865,70
744,47	1860,43
744,66	1877,40
744,85	1890,28
745,04	1830,88
745,23	1816,26
745,43	1904,32
745,62	1902,27
745,81	1857,51
746,00	1919,53
746,19	1973,95
746,38	1961,66
746,57	1890,28
746,76	1863,36
746,95	1985,07
747,14	1983,31
747,33	1903,15
747,52	1923,34
747,71	2024,56
747,90	2036,85
748,09	1996,77
748,28	1983,90
748,47	2046,51
748,66	2030,41
748,85	1925,68
749,04	1894,37
749,23	1927,43
749,42	1923,92
749,61	1832,05
749,80	1799,87
749,99	1874,48
750,18	1900,22
750,37	1832,93
750,56	1874,18
750,75	1929,19
750,94	1951,42
751,13	1906,95
751,32	1922,16
751,51	1965,46
751,70	1952,01
751,90	1905,20
752,09	1981,85
752,28	1997,65
752,47	2028,07
752,66	1928,31
752,84	1928,31
753,03	1993,55
753,22	1959,91
753,41	1830,30
753,60	1880,04
753,79	1891,74
753,98	1911,93
754,17	1871,55
754,36	1895,83
754,55	1950,54
754,74	1934,45
754,93	1815,67
755,12	1874,77
755,31	1961,95
755,50	1971,90
755,69	1904,03
755,88	1905,20
756,07	1976,29
756,26	1999,70
756,45	1938,84
756,64	2008,76
756,83	2078,98
757,02	2045,92
757,21	1986,24
757,40	1998,23
757,59	2052,65
757,78	2012,86
757,97	1852,83
758,16	1892,62
758,35	1943,23
758,54	1947,91
758,73	1875,94
758,92	1932,40
759,11	1971,90
759,30	1981,85
759,48	1829,71
759,67	1823,86
759,86	1902,86
760,05	1899,93
760,24	1777,34
760,43	1750,72
760,62	1809,23
760,81	1824,45
761,00	1773,25
761,19	1751,01
761,38	1843,46
761,57	1842,59
761,76	1825,62
761,95	1819,18
762,14	1844,34
762,32	1845,22
762,51	1770,91
762,70	1714,44
762,89	1811,28
763,08	1792,85
763,27	1708,30
763,46	1806,89
763,65	1899,34
763,84	1894,66
764,03	1846,10
764,22	1822,11
764,40	1928,31
764,59	1962,25
764,78	1829,13
764,97	1851,95
765,16	1910,46
765,35	1903,73
765,54	1827,08
765,73	1826,79
765,92	1899,64
766,11	1913,10
766,29	1797,24
766,48	1842,59
766,67	1940,30
766,86	1951,42
767,05	1861,60
767,24	1818,89
767,43	1879,16
767,62	1888,52
767,81	1793,44
767,99	1798,12
768,18	1860,43
768,37	1834,10
768,56	1786,71
768,75	1803,38
768,94	1903,73
769,13	1936,50
769,31	1855,75
769,50	1883,84
769,69	1959,61
769,88	1967,22
770,07	1876,23
770,26	1855,17
770,45	1910,75
770,64	1911,63
770,82	1805,14
771,01	1831,76
771,20	1895,54
771,39	1916,61
771,58	1844,34
771,77	1849,02
771,95	1905,49
772,14	1952,59
772,33	1896,42
772,52	1889,40
772,71	1937,96
772,90	1957,86
773,08	1887,06
773,27	1884,72
773,46	1891,74
773,65	1874,18
773,84	1790,51
774,03	1813,92
774,21	1878,28
774,40	1882,96
774,59	1827,96
774,78	1854,29
774,97	1936,50
775,16	1958,44
775,34	1857,80
775,53	1845,51
775,72	1896,71
775,91	1897,00
776,10	1829,13
776,28	1808,94
776,47	1870,38
776,66	1894,96
776,85	1832,35
777,04	1826,20
777,23	1924,80
777,41	1935,62
777,60	1856,04
777,79	1910,46
777,98	1957,86
778,17	1961,66
778,35	1894,37
778,54	1892,62
778,73	1975,70
778,92	2023,10
779,10	1881,79
779,29	1889,69
779,48	1938,55
779,67	1940,89
779,86	1834,10
780,04	1780,27
780,23	1776,76
780,42	1802,21
780,61	1736,97
780,79	1747,21
780,98	1827,96
781,17	1852,83
781,36	1804,26
781,55	1848,73
781,73	1909,58
781,92	1924,51
782,11	1855,17
782,30	1825,62
782,48	1856,63
782,67	1866,87
782,86	1793,73
783,05	1778,22
783,23	1826,20
783,42	1854,29
783,61	1800,75
783,80	1789,63
783,98	1892,32
784,17	1894,66
784,36	1829,13
784,55	1827,08
784,73	1840,54
784,92	1862,19
785,11	1841,42
785,30	1831,76
785,48	1875,06
785,67	1879,16
785,86	1801,33
786,05	1829,42
786,23	1863,94
786,42	1854,29
786,61	1760,67
786,79	1758,03
786,98	1835,57
787,17	1859,56
787,36	1769,45
787,54	1812,45
787,73	1845,80
787,92	1841,71
788,10	1810,40
788,29	1820,35
788,48	1878,28
788,67	1892,91
788,85	1785,54
789,04	1773,83
789,23	1813,62
789,41	1816,26
789,60	1736,97
789,79	1742,82
789,98	1822,40
790,16	1846,39
790,35	1809,82
790,54	1832,35
790,72	1847,27
790,91	1846,10
791,10	1757,16
791,28	1799,29
791,47	1831,18
791,66	1861,31
791,84	1779,68
792,03	1824,45
792,22	1867,16
792,40	1907,83
792,59	1764,47
792,78	1796,36
792,96	1814,21
793,15	1816,55
793,34	1746,62
793,53	1794,02
793,71	1882,67
793,90	1918,95
794,09	1825,91
794,27	1870,09
794,46	1977,75
794,65	1994,14
794,83	1919,82
795,02	1870,09
795,20	1899,34
795,39	1889,98
795,58	1807,48
795,76	1765,35
795,95	1837,91
796,14	1829,71
796,32	1753,65
796,51	1779,98
796,70	1863,65
796,88	1827,96
797,07	1768,27
797,26	1744,28
797,44	1803,38
797,63	1828,54
797,81	1755,99
798,00	1868,33
798,19	1986,24
798,37	2003,21
798,56	1931,82
798,75	2000,87
798,93	2049,43
799,12	2066,99
799,31	1913,68
799,49	1882,96
799,68	1982,43
799,86	1977,17
800,05	1838,20
800,24	1839,95
800,42	1887,35
800,61	1853,12
800,79	1788,75
800,98	1780,56
801,17	1882,96
801,35	1889,69
801,54	1827,08
801,72	1861,02
801,91	1933,58
802,10	1933,87
802,28	1828,54
802,47	1826,79
802,65	1970,15
802,84	1982,73
803,03	1892,03
803,21	1910,46
803,40	2007,89
803,58	2015,49
803,77	1901,98
803,96	1829,71
804,14	1911,34
804,33	1920,41
804,51	1854,29
804,70	1797,53
804,88	1894,96
805,07	1933,87
805,26	1854,00
805,44	1794,31
805,63	1893,49
805,81	1878,87
806,00	1843,17
806,18	1824,74
806,37	1877,11
806,56	1895,25
806,74	1877,40
806,93	1884,13
807,11	1960,49
807,30	1963,12
807,48	1883,55
807,67	1905,20
807,85	1938,26
808,04	1931,23
808,23	1812,16
808,41	1768,57
808,60	1790,51
808,78	1778,81
808,97	1686,94
809,15	1738,73
809,34	1831,47
809,52	1855,17
809,71	1824,74
809,89	1869,50
810,08	1916,02
810,26	1900,22
810,45	1812,74
810,64	1798,12
810,82	1826,50
811,01	1848,73
811,19	1780,86
811,38	1818,30
811,56	1931,23
811,75	1944,40
811,93	1869,50
812,12	1960,20
812,30	1994,14
812,49	1990,33
812,67	1905,20
812,86	1869,50
813,04	1906,95
813,23	1906,37
813,41	1745,45
813,60	1768,86
813,78	1805,14
813,97	1839,37
814,15	1776,47
814,34	1772,96
814,52	1747,80
814,71	1773,54
814,89	1667,92
815,08	1705,67
815,26	1740,48
815,45	1736,09
815,63	1711,52
815,82	1801,33
816,00	1873,89
816,19	1904,61
816,37	1836,44
816,56	1831,76
816,74	1851,66
816,93	1814,21
817,11	1732,58
817,29	1716,78
817,48	1771,79
817,66	1758,91
817,85	1711,52
818,03	1791,39
818,22	1870,38
818,40	1898,47
818,59	1824,74
818,77	1777,34
818,96	1841,71
819,14	1845,22
819,33	1744,87
819,51	1775,00
819,69	1821,23
819,88	1825,91
820,06	1814,21
820,25	1821,23
820,43	1899,64
820,62	1876,23
820,80	1767,69
820,99	1766,23
821,17	1839,37
821,35	1838,20
821,54	1773,83
821,72	1746,33
821,91	1847,56
822,09	1869,80
822,28	1811,28
822,46	1801,63
822,64	1842,59
822,83	1842,59
823,01	1774,13
823,20	1816,84
823,38	1846,10
823,57	1847,56
823,75	1792,27
823,93	1798,41
824,12	1867,45
824,30	1857,51
824,49	1746,92
824,67	1747,50
824,85	1796,95
825,04	1796,07
825,22	1755,69
825,41	1774,42
825,59	1876,23
825,77	1856,04
825,96	1807,48
826,14	1804,26
826,33	1871,26
826,51	1853,41
826,69	1762,72
826,88	1779,39
827,06	1828,25
827,25	1828,25
827,43	1756,57
827,61	1726,73
827,80	1787,29
827,98	1817,72
828,16	1736,09
828,35	1746,04
828,53	1772,66
828,72	1772,96
828,90	1746,04
829,08	1744,58
829,27	1758,62
829,45	1729,36
829,63	1673,19
829,82	1700,98
830,00	1736,09
830,18	1730,83
830,37	1665,88
830,55	1671,14
830,74	1727,90
830,92	1741,07
831,10	1692,21
831,29	1715,61
831,47	1776,76
831,65	1820,64
831,84	1772,66
832,02	1786,12
832,20	1852,24
832,39	1862,19
832,57	1820,64
832,75	1808,65
832,94	1825,33
833,12	1819,47
833,30	1759,21
833,49	1806,89
833,67	1879,74
833,85	1890,86
834,04	1846,98
834,22	1868,92
834,40	1900,52
834,59	1905,78
834,77	1781,73
834,95	1744,28
835,14	1780,56
835,32	1766,23
835,50	1713,56
835,69	1757,74
835,87	1805,14
836,05	1781,15
836,23	1759,79
836,42	1738,14
836,60	1839,66
836,78	1841,12
836,97	1760,08
837,15	1809,82
837,33	1892,32
837,52	1876,23
837,70	1856,04
837,88	1805,14
838,06	1827,67
838,25	1855,17
838,43	1758,03
838,61	1788,46
838,80	1790,22
838,98	1773,54
839,16	1712,69
839,34	1748,67
839,53	1819,47
839,71	1826,79
839,89	1756,28
840,08	1816,84
840,26	1842,29
840,44	1853,70
840,62	1772,66
840,81	1785,54
840,99	1855,46
841,17	1832,93
841,35	1744,28
841,54	1807,77
841,72	1895,83
841,90	1906,66
842,09	1818,30
842,27	1780,56
842,45	1871,84
842,63	1895,83
842,82	1815,67
843,00	1783,49
843,18	1845,22
843,36	1859,56
843,55	1804,26
843,73	1837,03
843,91	1897,30
844,09	1901,39
844,27	1826,50
844,46	1846,39
844,64	1861,90
844,82	1882,38
845,00	1789,05
845,19	1794,31
845,37	1840,83
845,55	1890,57
845,73	1799,29
845,92	1817,13
846,10	1862,77
846,28	1858,68
846,46	1783,20
846,64	1795,19
846,83	1827,37
847,01	1830,59
847,19	1757,16
847,37	1720,88
847,55	1734,63
847,74	1759,79
847,92	1668,51
848,10	1667,05
848,28	1731,12
848,46	1754,82
848,65	1719,71
848,83	1751,31
849,01	1810,40
849,19	1817,72
849,37	1765,35
849,56	1752,77
849,74	1792,27
849,92	1828,25
850,10	1784,37
850,28	1772,66
850,47	1873,89
850,65	1871,84
850,83	1801,33
851,01	1821,81
851,19	1816,55
851,37	1801,92
851,56	1712,98
851,74	1702,74
851,92	1777,93
852,10	1835,86
852,28	1787,29
852,46	1866,58
852,65	1891,74
852,83	1909,88
853,01	1857,80
853,19	1823,57
853,37	1849,32
853,55	1840,25
853,74	1743,11
853,92	1747,21
854,10	1815,09
854,28	1830,30
854,46	1796,07
854,64	1812,16
854,82	1847,56
855,01	1868,33
855,19	1833,22
855,37	1829,71
855,55	1832,05
855,73	1843,46
855,91	1761,55
856,09	1805,43
856,28	1805,72
856,46	1811,87
856,64	1752,18
856,82	1794,61
857,00	1797,24
857,18	1818,60
857,36	1728,49
857,54	1798,70
857,73	1793,14
857,91	1797,24
858,09	1714,15
858,27	1780,86
858,45	1795,48
858,63	1791,39
858,81	1694,84
858,99	1771,49
859,17	1766,52
859,36	1768,86
859,54	1659,44
859,72	1651,83
859,90	1688,11
860,08	1695,72
860,26	1629,31
860,44	1675,53
860,62	1714,15
860,80	1749,84
860,98	1713,56
861,17	1813,62
861,35	1863,36
861,53	1876,82
861,71	1827,96
861,89	1820,64
862,07	1820,64
862,25	1809,53
862,43	1661,20
862,61	1672,90
862,79	1676,41
862,97	1659,73
863,15	1628,72
863,33	1674,65
863,52	1746,62
863,70	1753,94
863,88	1707,42
864,06	1715,32
864,24	1812,45
864,42	1803,68
864,60	1740,48
864,78	1732,87
864,96	1811,28
865,14	1794,61
865,32	1744,87
865,50	1729,95
865,68	1779,10
865,86	1801,63
866,04	1742,53
866,22	1710,93
866,40	1766,23
866,58	1766,23
866,76	1680,21
866,94	1702,74
867,12	1687,82
867,31	1707,71
867,49	1649,79
867,67	1638,96
867,85	1727,90
868,03	1740,77
868,21	1681,97
868,39	1717,08
868,57	1755,11
868,75	1751,89
868,93	1703,03
869,11	1698,94
869,29	1753,65
869,47	1736,68
869,65	1708,01
869,83	1723,22
870,01	1768,57
870,19	1789,92
870,37	1698,06
870,55	1726,73
870,73	1774,13
870,91	1756,57
871,09	1682,26
871,27	1717,95
871,45	1761,84
871,63	1813,92
871,81	1719,42
871,99	1738,73
872,17	1783,49
872,35	1805,43
872,53	1767,69
872,71	1772,37
872,89	1805,72
873,07	1839,37
873,25	1803,68
873,43	1785,83
873,61	1853,41
873,79	1820,94
873,97	1768,86
874,15	1759,50
874,32	1802,80
874,50	1770,03
874,68	1726,44
874,86	1701,57
875,04	1793,44
875,22	1813,04
875,40	1765,06
875,58	1736,68
875,76	1823,57
875,94	1839,37
876,12	1807,48
876,30	1792,85
876,48	1851,36
876,66	1836,15
876,84	1783,49
877,02	1752,77
877,20	1810,11
877,38	1832,35
877,56	1739,31
877,74	1725,27
877,91	1813,04
878,09	1830,01
878,27	1793,14
878,45	1807,19
878,63	1803,09
878,81	1827,37
878,99	1747,21
879,17	1740,77
879,35	1773,83
879,53	1736,97
879,71	1667,92
879,89	1667,92
880,07	1714,73
880,25	1738,43
880,42	1647,44
880,60	1693,96
880,78	1791,09
880,96	1773,54
881,14	1724,68
881,32	1727,32
881,50	1775,30
881,68	1800,75
881,86	1712,98
882,04	1670,85
882,21	1729,66
882,39	1759,79
882,57	1695,43
882,75	1681,97
882,93	1694,84
883,11	1683,72
883,29	1672,31
883,47	1660,32
883,65	1717,95
883,82	1731,41
884,00	1662,37
884,18	1678,75
884,36	1741,36
884,54	1719,42
884,72	1664,71
884,90	1673,19
885,08	1724,10
885,25	1727,02
885,43	1684,89
885,61	1687,82
885,79	1781,15
885,97	1798,12
886,15	1691,04
886,33	1700,98
886,50	1731,41
886,68	1716,78
886,86	1645,40
887,04	1618,19
887,22	1662,37
887,40	1695,43
887,58	1619,07
887,75	1638,08
887,93	1652,71
888,11	1670,85
888,29	1592,73
888,47	1619,07
888,65	1658,27
888,82	1662,95
889,00	1626,38
889,18	1663,83
889,36	1705,96
889,54	1719,12
889,72	1646,86
889,89	1676,41
890,07	1736,97
890,25	1725,85
890,43	1690,16
890,61	1693,09
890,78	1773,83
890,96	1758,33
891,14	1668,80
891,32	1695,72
891,50	1765,35
891,68	1787,58
891,85	1739,60
892,03	1692,21
892,21	1739,60
892,39	1735,80
892,57	1645,10
892,74	1616,43
892,92	1678,46
893,10	1703,03
893,28	1666,46
893,46	1741,36
893,63	1822,69
893,81	1849,02
893,99	1802,80
894,17	1764,76
894,34	1804,55
894,52	1807,19
894,70	1697,18
894,88	1703,32
895,06	1775,88
895,23	1763,01
895,41	1700,69
895,59	1687,53
895,77	1732,29
895,94	1749,26
896,12	1678,16
896,30	1636,03
896,48	1753,35
896,65	1765,35
896,83	1719,12
897,01	1681,67
897,19	1752,48
897,36	1732,58
897,54	1673,48
897,72	1646,86
897,90	1688,40
898,07	1694,84
898,25	1693,38
898,43	1665,58
898,61	1759,79
898,78	1768,86
898,96	1691,04
899,14	1699,81
899,32	1764,18
899,49	1753,94
899,67	1677,58
899,85	1640,13
900,03	1708,01
900,20	1709,18
900,38	1635,45
900,56	1632,82
900,73	1674,36
900,91	1675,24
901,09	1640,42
901,27	1632,82
901,44	1694,84
901,62	1707,71
901,80	1640,72
901,98	1670,26
902,15	1724,39
902,33	1695,13
902,51	1642,76
902,68	1630,48
902,86	1686,06
903,04	1671,73
903,21	1599,46
903,39	1626,96
903,57	1681,38
903,75	1676,70
903,92	1636,62
904,10	1646,27
904,28	1708,01
904,45	1712,69
904,63	1661,49
904,81	1667,92
904,98	1746,33
905,16	1758,03
905,34	1704,50
905,51	1723,51
905,69	1818,60
905,87	1788,17
906,04	1727,32
906,22	1700,40
906,40	1768,57
906,57	1772,96
906,75	1707,13
906,93	1664,71
907,10	1748,09
907,28	1750,72
907,46	1674,65
907,63	1684,02
907,81	1732,87
907,99	1728,49
908,16	1668,51
908,34	1656,51
908,52	1710,93
908,69	1727,02
908,87	1618,77
909,05	1629,89
909,22	1648,91
909,40	1674,65
909,57	1602,97
909,75	1632,52
909,93	1696,01
910,10	1693,67
910,28	1653,88
910,46	1682,85
910,63	1733,75
910,81	1712,69
910,98	1628,72
911,16	1687,23
911,34	1722,34
911,51	1712,69
911,69	1665,88
911,87	1666,46
912,04	1772,96
912,22	1773,25
912,39	1657,39
912,57	1688,99
912,75	1724,97
912,92	1737,26
913,10	1671,14
913,27	1696,01
913,45	1729,36
913,63	1708,30
913,80	1656,22
913,98	1667,92
914,15	1742,82
914,33	1735,21
914,51	1660,02
914,68	1674,65
914,86	1725,56
915,03	1725,56
915,21	1657,68
915,39	1654,17
915,56	1702,74
915,74	1674,65
915,91	1624,33
916,09	1643,93
916,26	1690,45
916,44	1690,45
916,62	1621,41
916,79	1659,44
916,97	1672,31
917,14	1695,13
917,32	1640,13
917,49	1652,71
917,67	1723,22
917,85	1692,21
918,02	1614,38
918,20	1732,29
918,37	1774,42
918,55	1761,84
918,72	1690,16
918,90	1671,73
919,07	1756,86
919,25	1731,70
919,42	1597,42
919,60	1614,38
919,78	1683,72
919,95	1699,23
920,13	1637,79
920,30	1627,55
920,48	1733,17
920,65	1748,09
920,83	1678,46
921,00	1714,73
921,18	1776,76
921,35	1783,78
921,53	1710,64
921,70	1673,48
921,88	1727,02
922,05	1727,02
922,23	1637,20
922,40	1613,21
922,58	1633,99
922,75	1645,10
922,93	1598,29
923,10	1612,92
923,28	1656,81
923,45	1645,98
923,63	1604,73
923,80	1688,11
923,98	1760,67
924,15	1759,50
924,33	1690,45
924,50	1702,15
924,68	1769,45
924,85	1760,38
925,03	1671,44
925,20	1650,37
925,38	1754,82
925,55	1759,21
925,73	1715,61
925,90	1717,66
926,08	1837,03
926,25	1825,03
926,43	1772,37
926,60	1772,66
926,78	1800,46
926,95	1775,59
927,13	1701,86
927,30	1638,67
927,48	1698,64
927,65	1688,40
927,83	1576,06
928,00	1615,85
928,17	1666,17
928,35	1679,92
928,52	1621,41
928,70	1587,47
928,87	1675,53
929,05	1660,90
929,22	1599,46
929,40	1670,26
929,57	1719,12
929,74	1691,33
929,92	1677,87
930,09	1673,78
930,27	1776,17
930,44	1783,20
930,62	1667,92
930,79	1695,43
930,97	1811,57
931,14	1774,13
931,31	1686,94
931,49	1641,30
931,66	1624,92
931,84	1614,38
932,01	1527,78
932,18	1492,09
932,36	1595,08
932,53	1608,24
932,71	1564,65
932,88	1631,06
933,06	1705,37
933,23	1712,10
933,40	1661,49
933,58	1655,05
933,75	1703,62
933,93	1720,88
934,10	1640,42
934,27	1666,46
934,45	1694,84
934,62	1697,18
934,80	1611,17
934,97	1620,82
935,14	1670,26
935,32	1659,44
935,49	1556,46
935,66	1608,83
935,84	1702,15
936,01	1701,57
936,19	1629,89
936,36	1628,43
936,53	1714,73
936,71	1736,68
936,88	1653,30
937,05	1626,96
937,23	1663,24
937,40	1675,82
937,58	1621,41
937,75	1634,86
937,92	1667,63
938,10	1681,38
938,27	1622,28
938,44	1654,17
938,62	1743,11
938,79	1746,92
938,96	1659,73
939,14	1662,66
939,31	1718,54
939,48	1716,78
939,66	1655,05
939,83	1587,18
940,01	1645,69
940,18	1634,57
940,35	1580,15
940,53	1568,45
940,70	1641,01
940,87	1653,88
941,05	1613,21
941,22	1625,21
941,39	1684,31
941,56	1691,33
941,74	1633,99
941,91	1670,26
942,08	1712,98
942,26	1725,56
942,43	1650,37
942,60	1734,63
942,78	1791,97
942,95	1812,45
943,12	1704,20
943,30	1686,65
943,47	1744,58
943,64	1737,85
943,82	1612,63
943,99	1586,88
944,16	1610,29
944,33	1619,65
944,51	1795,19
944,68	1805,72
944,85	1851,95
945,03	1837,32
945,20	1795,19
945,37	1834,69
945,54	1893,79
945,72	1677,58
945,89	1605,61
946,06	1647,74
946,24	1691,33
946,41	1706,54
946,58	1607,36
946,75	1590,39
946,93	1679,04
947,10	1681,09
947,27	1579,28
947,44	1697,18
947,62	1745,16
947,79	1753,06
947,96	1697,47
948,14	1645,10
948,31	1722,05
948,48	1725,27
948,65	1574,30
948,83	1625,21
949,00	1680,50
949,17	1672,90
949,34	1628,72
949,52	1619,94
949,69	1709,47
949,86	1705,37
950,03	1598,29
950,20	1681,09
950,38	1795,78
950,55	1813,62
950,72	1756,86
950,89	1745,45
951,07	1803,09
951,24	1801,33
951,41	1660,61
951,58	1624,33
951,76	1711,52
951,93	1728,19
952,10	1683,72
952,27	1692,50
952,44	1736,97
952,62	1744,87
952,79	1657,98
952,96	1623,75
953,13	1630,48
953,30	1598,88
953,48	1521,93
953,65	1589,52
953,82	1646,86
953,99	1655,34
954,16	1584,25
954,34	1601,80
954,51	1676,12
954,68	1698,35
954,85	1598,00
955,02	1680,80
955,20	1712,39
955,37	1726,73
955,54	1693,96
955,71	1720,29
955,88	1795,78
956,06	1778,81
956,23	1635,45
956,40	1632,82
956,57	1700,40
956,74	1702,15
956,91	1602,10
957,09	1596,25
957,26	1667,34
957,43	1668,22
957,60	1633,40
957,77	1665,88
957,94	1706,84
958,12	1701,57
958,29	1615,55
958,46	1613,51
958,63	1729,07
958,80	1730,83
958,97	1611,75
959,14	1650,37
959,32	1703,62
959,49	1701,86
959,66	1672,61
959,83	1670,26
960,00	1751,89
960,17	1755,69
960,34	1663,24
960,52	1690,74
960,69	1802,80
960,86	1793,44
961,03	1668,22
961,20	1653,30
961,37	1737,26
961,54	1724,39
961,71	1673,19
961,89	1634,86
962,06	1695,13
962,23	1700,40
962,40	1640,72
962,57	1681,97
962,74	1767,40
962,91	1790,80
963,08	1729,95
963,25	1763,89
963,43	1858,68
963,60	1878,57
963,77	1750,43
963,94	1745,16
964,11	1820,35
964,28	1839,66
964,45	1734,92
964,62	1767,40
964,79	1839,95
964,96	1839,95
965,13	1763,59
965,31	1748,97
965,48	1786,41
965,65	1777,64
965,82	1643,64
965,99	1654,76
966,16	1716,20
966,33	1714,73
966,50	1595,37
966,67	1645,40
966,84	1706,84
967,01	1726,44
967,18	1643,93
967,35	1686,36
967,52	1772,96
967,70	1800,75
967,87	1677,58
968,04	1655,34
968,21	1751,89
968,38	1745,16
968,55	1626,67
968,72	1639,84
968,89	1711,22
969,06	1693,67
969,23	1643,93
969,40	1658,27
969,57	1756,57
969,74	1793,14
969,91	1709,76
970,08	1663,24
970,25	1785,54
970,42	1799,58
970,59	1659,73
970,76	1603,85
970,93	1673,78
971,10	1678,16
971,27	1662,37
971,44	1608,53
971,61	1682,26
971,78	1721,17
971,95	1669,68
972,12	1679,04
972,29	1719,71
972,46	1709,18
972,63	1660,32
972,80	1705,37
972,97	1762,72
973,14	1731,41
973,31	1664,41
973,48	1697,77
973,65	1744,87
973,82	1748,38
973,99	1615,55
974,16	1634,28
974,33	1785,83
974,50	1762,13
974,67	1665,00
974,84	1672,90
975,01	1748,67
975,18	1772,66
975,35	1695,13
975,52	1664,12
975,69	1726,44
975,86	1732,87
976,03	1656,81
976,20	1676,70
976,37	1710,93
976,54	1698,35
976,71	1616,14
976,88	1664,41
977,05	1743,41
977,22	1748,09
977,39	1669,09
977,56	1679,92
977,73	1776,47
977,90	1784,37
978,07	1649,20
978,24	1642,18
978,41	1681,38
978,58	1674,65
978,75	1619,07
978,91	1585,13
979,08	1614,38
979,25	1651,25
979,42	1579,86
979,59	1623,75
979,76	1711,81
979,93	1740,77
980,10	1678,16
980,27	1690,74
980,44	1764,18
980,61	1761,25
980,78	1679,92
980,95	1672,90
981,12	1708,88
981,28	1717,08
981,45	1662,07
981,62	1624,33
981,79	1683,43
981,96	1689,57
982,13	1611,75
982,30	1663,54
982,47	1690,45
982,64	1706,25
982,81	1683,14
982,97	1691,91
983,14	1760,08
983,31	1751,60
983,48	1628,72
983,65	1686,94
983,82	1786,71
983,99	1768,27
984,16	1732,58
984,33	1711,52
984,49	1814,21
984,66	1844,93
984,83	1771,20
985,00	1746,92
985,17	1811,57
985,34	1780,56
985,51	1735,21
985,68	1704,79
985,84	1758,03
986,01	1744,28
986,18	1657,68
986,35	1682,55
986,52	1745,45
986,69	1729,36
986,86	1642,76
987,03	1651,54
987,19	1689,57
987,36	1674,36
987,53	1590,69
987,70	1600,93
987,87	1675,24
988,04	1692,79
988,20	1609,70
988,37	1643,93
988,54	1721,76
988,71	1746,33
988,88	1671,44
989,05	1685,48
989,21	1720,00
989,38	1736,38
989,55	1659,44
989,72	1640,13
989,89	1695,72
990,06	1687,53
990,22	1601,51
990,39	1648,91
990,56	1695,72
990,73	1679,92
990,90	1616,14
991,06	1624,33
991,23	1734,92
991,40	1732,87
991,57	1631,06
991,74	1641,59
991,91	1718,25
992,07	1706,54
992,24	1643,93
992,41	1622,28
992,58	1698,64
992,75	1715,61
992,91	1648,91
993,08	1712,10
993,25	1807,19
993,42	1760,96
993,58	1671,44
993,75	1676,12
993,92	1755,11
994,09	1739,31
994,26	1601,80
994,42	1636,03
994,59	1700,69
994,76	1711,81
994,93	1628,43
995,09	1630,77
995,26	1755,11
995,43	1769,15
995,60	1654,17
995,76	1666,75
995,93	1741,36
996,10	1755,11
996,27	1669,09
996,44	1654,47
996,60	1752,77
996,77	1773,54
996,94	1711,52
997,11	1737,56
997,27	1775,59
997,44	1753,06
997,61	1621,70
997,77	1586,01
997,94	1680,21
998,11	1676,70
998,28	1567,87
998,44	1614,38
998,61	1711,81
998,78	1729,95
998,95	1650,96
999,11	1673,48
999,28	1719,42
999,45	1742,82
999,61	1634,28
999,78	1649,49
999,95	1761,84
1000,12	1770,32
1000,28	1646,86
1000,45	1682,26
1000,62	1702,15
1000,78	1700,98
1000,95	1603,27
1001,12	1543,00
1001,29	1610,58
1001,45	1605,31
1001,62	1506,43
1001,79	1567,28
1001,95	1659,15
1002,12	1674,95
1002,29	1624,62
1002,45	1659,44
1002,62	1731,12
1002,79	1735,21
1002,96	1615,85
1003,12	1667,63
1003,29	1709,76
1003,46	1712,10
1003,62	1612,92
1003,79	1643,06
1003,96	1723,22
1004,12	1756,57
1004,29	1653,00
1004,46	1660,02
1004,62	1733,17
1004,79	1724,68
1004,96	1583,96
1005,12	1619,65
1005,29	1698,06
1005,46	1701,57
1005,62	1628,14
1005,79	1581,32
1005,95	1645,40
1006,12	1679,92
1006,29	1556,46
1006,45	1524,27
1006,62	1580,15
1006,79	1597,42
1006,95	1559,97
1007,12	1630,77
1007,29	1695,72
1007,45	1700,98
1007,62	1632,23
1007,79	1632,23
1007,95	1676,41
1008,12	1710,05
1008,28	1569,91
1008,45	1576,64
1008,62	1686,94
1008,78	1721,17
1008,95	1639,55
1009,11	1672,61
1009,28	1721,46
1009,45	1741,07
1009,61	1649,79
1009,78	1599,76
1009,95	1675,24
1010,11	1680,21
1010,28	1597,71
1010,44	1586,01
1010,61	1637,50
1010,78	1666,46
1010,94	1611,17
1011,11	1596,83
1011,27	1639,55
1011,44	1610,29
1011,61	1545,92
1011,77	1583,37
1011,94	1638,67
1012,10	1642,47
1012,27	1552,65
1012,43	1571,38
1012,60	1659,73
1012,77	1639,25
1012,93	1552,65
1013,10	1585,42
1013,26	1630,48
1013,43	1637,50
1013,59	1556,16
1013,76	1611,17
1013,93	1685,19
1014,09	1677,58
1014,26	1566,70
1014,42	1654,47
1014,59	1712,39
1014,75	1725,27
1014,92	1601,51
1015,08	1626,67
1015,25	1724,10
1015,42	1728,19
1015,58	1588,35
1015,75	1610,00
1015,91	1719,42
1016,08	1736,09
1016,24	1672,90
1016,41	1631,06
1016,57	1686,06
1016,74	1695,13
1016,90	1593,90
1017,07	1563,19
1017,23	1693,09
1017,40	1671,44
1017,56	1626,96
1017,73	1694,84
1017,90	1763,89
1018,06	1818,60
1018,23	1740,48
1018,39	1676,70
1018,56	1792,85
1018,72	1792,27
1018,89	1676,99
1019,05	1705,96
1019,22	1720,88
1019,38	1709,76
1019,55	1652,13
1019,71	1598,29
1019,88	1693,09
1020,04	1698,94
1020,21	1601,80
1020,37	1639,84
1020,54	1725,27
1020,70	1713,56
1020,87	1681,97
1021,03	1657,10
1021,19	1707,13
1021,36	1710,05
1021,52	1615,85
1021,69	1601,22
1021,85	1712,69
1022,02	1684,60
1022,18	1590,98
1022,35	1652,42
1022,51	1703,91
1022,68	1712,39
1022,84	1669,39
1023,01	1614,09
1023,17	1674,95
1023,34	1683,72
1023,50	1554,70
1023,66	1601,80
1023,83	1713,86
1023,99	1694,84
1024,16	1642,47
1024,32	1735,21
1024,49	1821,52
1024,65	1812,16
1024,82	1712,10
1024,98	1726,15
1025,15	1847,85
1025,31	1846,98
1025,47	1722,63
1025,64	1692,79
1025,80	1796,95
1025,97	1773,25
1026,13	1628,72
1026,30	1615,55
1026,46	1662,07
1026,62	1617,90
1026,79	1573,43
1026,95	1551,78
1027,12	1669,97
1027,28	1686,94
1027,44	1593,61
1027,61	1617,60
1027,77	1760,08
1027,94	1762,42
1028,10	1705,96
1028,26	1718,25
1028,43	1735,51
1028,59	1724,39
1028,76	1627,84
1028,92	1586,88
1029,08	1671,14
1029,25	1676,70
1029,41	1559,09
1029,58	1616,14
1029,74	1677,58
1029,90	1695,72
1030,07	1608,24
1030,23	1630,77
1030,40	1700,69
1030,56	1701,86
1030,72	1628,14
1030,89	1639,84
1031,05	1733,46
1031,21	1760,67
1031,38	1630,48
1031,54	1660,02
1031,70	1739,90
1031,87	1723,51
1032,03	1652,13
1032,20	1659,73
1032,36	1724,68
1032,52	1731,70
1032,69	1598,88
1032,85	1582,79
1033,01	1734,34
1033,18	1729,36
1033,34	1648,03
1033,50	1642,76
1033,67	1731,12
1033,83	1739,60
1033,99	1685,19
1034,16	1639,55
1034,32	1723,80
1034,48	1686,06
1034,65	1614,97
1034,81	1665,29
1034,97	1732,87
1035,14	1742,24
1035,30	1662,66
1035,46	1722,93
1035,63	1844,93
1035,79	1842,88
1035,95	1703,32
1036,12	1681,38
1036,28	1718,83
1036,44	1724,97
1036,60	1561,43
1036,77	1554,41
1036,93	1625,79
1037,09	1620,82
1037,26	1573,13
1037,42	1664,71
1037,58	1750,14
1037,75	1767,10
1037,91	1675,24
1038,07	1665,88
1038,23	1740,77
1038,40	1763,01
1038,56	1616,43
1038,72	1605,61
1038,89	1691,04
1039,05	1686,36
1039,21	1607,07
1039,37	1619,94
1039,54	1704,79
1039,70	1715,32
1039,86	1631,06
1040,03	1649,20
1040,19	1681,38
1040,35	1698,06
1040,51	1614,97
1040,68	1583,37
1040,84	1634,86
1041,00	1637,50
1041,16	1539,78
1041,33	1617,02
1041,49	1695,13
1041,65	1722,05
1041,81	1698,06
1041,98	1713,86
1042,14	1794,61
1042,30	1796,36
1042,46	1673,48
1042,63	1705,08
1042,79	1728,49
1042,95	1693,96
1043,11	1621,41
1043,27	1621,41
1043,44	1396,71
1043,60	1380,33
1043,76	2029,54
>>>>>End Processed Spectral Data<<<<<
