SpectraSuite Data File
++++++++++++++++++++++++++++++++++++
Date: Fri Feb 20 11:06:07 EET 2009
User: Lachezar
Dark Spectrum Present: No
Reference Spectrum Present: No
Number of Sampled Component Spectra: 1
Spectrometers: USB4A00444
Integration Time (usec): 1000000 (USB4A00444)
Spectra Averaged: 1 (USB4A00444)
Boxcar Smoothing: 3 (USB4A00444)
Correct for Electrical Dark: No (USB4A00444)
Strobe/Lamp Enabled: No (USB4A00444)
Correct for Detector Non-linearity: No (USB4A00444)
Correct for Stray Light: No (USB4A00444)
Number of Pixels in Processed Spectrum: 3648
>>>>>Begin Processed Spectral Data<<<<<
346,32	33742,33
346,54	33742,33
346,75	33742,33
346,97	14927,94
347,18	10310,06
347,40	5701,54
347,61	996,19
347,83	1024,86
348,04	1071,67
348,26	1150,08
348,47	1133,11
348,69	1055,87
348,90	1028,08
349,12	1092,74
349,33	1091,57
349,55	1068,75
349,76	1060,85
349,98	1123,46
350,19	1127,26
350,41	1070,80
350,62	1062,60
350,84	1154,47
351,05	1170,27
351,27	1106,20
351,48	1191,04
351,70	1351,07
351,91	1423,63
352,12	1468,10
352,34	1566,99
352,55	1757,16
352,77	1942,64
352,98	2072,84
353,20	2364,23
353,41	2753,93
353,63	3143,05
353,84	3468,38
354,06	3925,66
354,27	4477,74
354,49	4992,36
354,70	5427,41
354,91	6001,72
355,13	6674,33
355,34	7369,76
355,56	8040,33
355,77	8822,06
355,99	9670,80
356,20	10506,08
356,42	11317,08
356,63	12250,36
356,85	13230,17
357,06	14199,74
357,27	15151,46
357,49	16325,53
357,70	17570,11
357,92	18819,37
358,13	20121,00
358,35	21618,94
358,56	23169,84
358,78	24894,52
358,99	26633,83
359,20	28547,22
359,42	30753,18
359,63	32893,60
359,85	35136,71
360,06	37575,25
360,28	40116,20
360,49	42790,26
360,70	45522,25
360,92	48467,81
361,13	51702,43
361,35	54897,85
361,56	57836,69
361,78	60317,07
361,99	62343,68
362,20	63965,09
362,42	64951,33
362,63	65425,87
362,85	65535,00
363,06	65535,00
363,28	65535,00
363,49	65535,00
363,70	65535,00
363,92	65535,00
364,13	65535,00
364,35	65535,00
364,56	65535,00
364,77	65535,00
364,99	65535,00
365,20	65535,00
365,42	65535,00
365,63	65535,00
365,84	65535,00
366,06	65535,00
366,27	65535,00
366,49	65535,00
366,70	65535,00
366,92	65535,00
367,13	65535,00
367,34	65535,00
367,56	65535,00
367,77	65535,00
367,98	65535,00
368,20	65535,00
368,41	65535,00
368,63	65535,00
368,84	65535,00
369,05	65535,00
369,27	65535,00
369,48	65535,00
369,70	65535,00
369,91	65535,00
370,12	65535,00
370,34	65535,00
370,55	65535,00
370,77	65535,00
370,98	65535,00
371,19	65535,00
371,41	65535,00
371,62	65535,00
371,83	65535,00
372,05	65535,00
372,26	65535,00
372,48	65535,00
372,69	65535,00
372,90	65535,00
373,12	65535,00
373,33	65535,00
373,54	65535,00
373,76	65535,00
373,97	65535,00
374,18	65535,00
374,40	65535,00
374,61	65535,00
374,83	65535,00
375,04	65535,00
375,25	65535,00
375,47	65535,00
375,68	65535,00
375,89	65535,00
376,11	65535,00
376,32	65535,00
376,53	65535,00
376,75	65535,00
376,96	65535,00
377,17	65535,00
377,39	65535,00
377,60	65535,00
377,82	65535,00
378,03	65535,00
378,24	65535,00
378,46	65535,00
378,67	65535,00
378,88	65535,00
379,10	65535,00
379,31	65535,00
379,52	65535,00
379,74	65535,00
379,95	65535,00
380,16	65535,00
380,38	65535,00
380,59	65535,00
380,80	65535,00
381,02	65535,00
381,23	65535,00
381,44	65535,00
381,66	65535,00
381,87	65535,00
382,08	65535,00
382,30	65535,00
382,51	65535,00
382,72	65535,00
382,94	65535,00
383,15	65535,00
383,36	65535,00
383,58	65535,00
383,79	65535,00
384,00	65535,00
384,21	65535,00
384,43	65535,00
384,64	65535,00
384,85	65535,00
385,07	60427,66
385,28	56985,02
385,49	50641,00
385,71	44282,64
385,92	37835,05
386,13	31271,90
386,35	24603,71
386,56	23119,23
386,77	19899,53
386,98	19397,77
387,20	18843,36
387,41	18372,91
387,62	17967,12
387,84	17541,73
388,05	16961,57
388,26	16483,52
388,48	16125,41
388,69	15678,08
388,90	15191,25
389,11	14726,94
389,33	14381,42
389,54	14006,94
389,75	13565,74
389,97	13222,56
390,18	12984,12
390,39	12659,37
390,60	12360,37
390,82	12043,23
391,03	11778,16
391,24	11454,58
391,46	11018,36
391,67	10698,88
391,88	10390,22
392,09	10085,95
392,31	9737,21
392,52	9453,13
392,73	9240,14
392,94	8974,78
393,16	8648,28
393,37	8479,76
393,58	8248,05
393,80	8033,01
394,01	7733,42
394,22	7476,55
394,43	7365,96
394,65	7158,24
394,86	6883,81
395,07	6702,71
395,28	6558,18
395,50	6339,34
395,71	6108,80
395,92	5939,40
396,13	5730,22
396,35	5517,81
396,56	5241,63
396,77	5081,01
396,98	4992,07
397,20	4820,92
397,41	4522,79
397,62	4503,78
397,83	4412,79
398,05	4332,04
398,26	4103,54
398,47	4016,36
398,68	3932,98
398,90	3864,22
399,11	3611,45
399,32	3533,04
399,53	3414,84
399,75	3296,64
399,96	3114,38
400,17	3044,16
400,38	2996,47
400,60	2913,38
400,81	2747,20
401,02	2702,15
401,23	2680,79
401,44	2597,99
401,66	2455,81
401,87	2403,15
402,08	2400,22
402,29	2333,51
402,51	2185,77
402,72	2153,29
402,93	2150,37
403,14	2083,95
403,36	1931,23
403,57	1889,10
403,78	1920,99
403,99	1882,67
404,20	1767,10
404,42	1777,64
404,63	1786,12
404,84	1748,67
405,05	1625,79
405,26	1600,63
405,48	1614,97
405,69	1574,01
405,90	1426,56
406,11	1424,80
406,32	1441,77
406,54	1425,97
406,75	1314,80
406,96	1332,35
407,17	1449,08
407,38	1435,63
407,60	1350,78
407,81	1436,50
408,02	1490,34
408,23	1478,93
408,44	1365,12
408,66	1300,17
408,87	1329,13
409,08	1337,91
409,29	1194,55
409,50	1180,80
409,72	1243,41
409,93	1255,40
410,14	1163,54
410,35	1168,81
410,56	1258,92
410,78	1286,42
410,99	1218,83
411,20	1225,27
411,41	1310,99
411,62	1305,14
411,83	1257,16
412,05	1205,38
412,26	1235,51
412,47	1237,27
412,68	1150,96
412,89	1122,29
413,10	1201,87
413,32	1191,04
413,53	1127,85
413,74	1132,82
413,95	1165,59
414,16	1170,85
414,37	1102,10
414,59	1082,21
414,80	1154,47
415,01	1144,81
415,22	1071,38
415,43	1092,45
415,64	1113,22
415,86	1121,41
416,07	1054,12
416,28	1099,76
416,49	1188,11
416,70	1178,46
416,91	1126,68
417,12	1183,43
417,34	1249,55
417,55	1256,28
417,76	1148,03
417,97	1163,54
418,18	1258,04
418,39	1251,31
418,60	1167,05
418,82	1184,31
419,03	1276,47
419,24	1266,52
419,45	1164,42
419,66	1131,94
419,87	1188,70
420,08	1176,12
420,30	1089,52
420,51	1089,52
420,72	1173,78
420,93	1181,97
421,14	1130,19
421,35	1158,27
421,56	1227,61
421,77	1215,91
421,99	1116,73
422,20	1133,70
422,41	1257,16
422,62	1252,48
422,83	1179,92
423,04	1184,60
423,25	1282,03
423,46	1282,61
423,68	1178,46
423,89	1080,16
424,10	1168,22
424,31	1155,35
424,52	1085,72
424,73	1103,86
424,94	1150,37
425,15	1147,16
425,36	1107,37
425,58	1120,53
425,79	1213,57
426,00	1213,57
426,21	1110,29
426,42	1147,74
426,63	1223,52
426,84	1236,68
427,05	1139,55
427,26	1077,82
427,47	1128,72
427,69	1117,02
427,90	1019,30
428,11	992,39
428,32	1082,21
428,53	1093,32
428,74	1060,26
428,95	1094,49
429,16	1187,53
429,37	1195,14
429,58	1145,69
429,79	1082,50
430,00	1118,78
430,22	1128,72
430,43	1051,19
430,64	1035,69
430,85	1109,41
431,06	1112,63
431,27	1079,28
431,48	1089,52
431,69	1103,56
431,90	1088,35
432,11	1017,84
432,32	1045,93
432,53	1157,10
432,74	1152,42
432,95	1095,96
433,17	1181,39
433,38	1242,53
433,59	1245,16
433,80	1154,18
434,01	1131,65
434,22	1183,73
434,43	1189,28
434,64	1083,38
434,85	1087,76
435,06	1134,87
435,27	1126,68
435,48	1037,74
435,69	1123,75
435,90	1225,86
436,11	1218,25
436,32	1160,32
436,53	1178,46
436,74	1236,10
436,96	1236,68
437,17	1111,46
437,38	1104,73
437,59	1130,77
437,80	1133,70
438,01	1065,82
438,22	1067,58
438,43	1155,64
438,64	1157,69
438,85	1056,75
439,06	1085,13
439,27	1137,79
439,48	1137,21
439,69	1088,93
439,90	1040,66
440,11	1087,18
440,32	1110,00
440,53	1072,55
440,74	1102,98
440,95	1141,30
441,16	1152,13
441,37	1120,53
441,58	1159,15
441,79	1204,79
442,00	1205,96
442,21	1118,19
442,42	1172,61
442,63	1243,41
442,84	1240,19
443,05	1169,39
443,26	1168,51
443,47	1272,96
443,68	1287,29
443,89	1223,22
444,10	1203,91
444,31	1253,06
444,52	1255,11
444,73	1184,60
444,94	1137,79
445,15	1242,53
445,36	1219,13
445,57	1160,61
445,78	1171,15
445,99	1203,04
446,20	1224,10
446,41	1165,29
446,62	1100,64
446,83	1138,96
447,04	1137,79
447,25	1084,55
447,46	1098,30
447,67	1151,54
447,88	1140,43
448,09	1107,66
448,30	1134,57
448,51	1170,85
448,72	1157,98
448,93	1102,39
449,14	1069,92
449,35	1109,71
449,56	1095,66
449,77	1041,83
449,98	1057,04
450,19	1141,89
450,40	1132,82
450,61	1108,24
450,82	1151,54
451,03	1201,87
451,24	1209,18
451,45	1159,44
451,66	1130,19
451,87	1207,42
452,08	1209,76
452,29	1131,94
452,50	1164,71
452,71	1266,81
452,92	1259,21
453,13	1211,81
453,34	1202,74
453,55	1234,93
453,76	1234,05
453,96	1164,42
454,17	1106,20
454,38	1161,78
454,59	1173,19
454,80	1111,46
455,01	1133,99
455,22	1227,90
455,43	1232,00
455,64	1171,73
455,85	1150,67
456,06	1177,29
456,27	1190,16
456,48	1136,33
456,69	1105,90
456,90	1157,10
457,11	1163,54
457,32	1136,62
457,53	1167,34
457,73	1244,87
457,94	1240,48
458,15	1167,93
458,36	1181,97
458,57	1215,32
458,78	1212,10
458,99	1144,81
459,20	1114,39
459,41	1121,70
459,62	1120,53
459,83	1039,20
460,04	1057,34
460,25	1112,34
460,45	1120,53
460,66	1064,65
460,87	1158,86
461,08	1210,64
461,29	1230,24
461,50	1173,78
461,71	1172,32
461,92	1230,54
462,13	1243,41
462,34	1143,94
462,55	1158,86
462,76	1224,98
462,96	1226,73
463,17	1198,06
463,38	1217,37
463,59	1272,08
463,80	1271,50
464,01	1221,47
464,22	1227,03
464,43	1284,08
464,64	1269,45
464,85	1183,73
465,05	1165,88
465,26	1199,23
465,47	1197,77
465,68	1116,73
465,89	1175,83
466,10	1195,43
466,31	1190,45
466,52	1134,28
466,73	1190,45
466,93	1219,42
467,14	1201,28
467,35	1073,14
467,56	1107,95
467,77	1146,57
467,98	1158,27
468,19	1065,82
468,40	1088,64
468,60	1202,74
468,81	1219,13
469,02	1162,37
469,23	1184,90
469,44	1235,22
469,65	1231,41
469,86	1168,51
470,07	1136,92
470,27	1180,51
470,48	1175,83
470,69	1122,58
470,90	1125,51
471,11	1179,92
471,32	1199,23
471,53	1140,43
471,73	1165,29
471,94	1193,38
472,15	1203,04
472,36	1146,28
472,57	1221,47
472,78	1266,52
472,99	1270,62
473,19	1191,63
473,40	1226,15
473,61	1299,29
473,82	1308,36
474,03	1181,97
474,24	1174,95
474,44	1222,05
474,65	1247,51
474,86	1188,99
475,07	1228,20
475,28	1261,55
475,49	1287,00
475,69	1242,82
475,90	1234,63
476,11	1275,30
476,32	1277,93
476,53	1150,37
476,74	1186,94
476,94	1209,76
477,15	1234,93
477,36	1179,04
477,57	1212,40
477,78	1265,35
477,99	1301,34
478,19	1220,59
478,40	1251,31
478,61	1267,40
478,82	1274,71
479,03	1210,93
479,23	1176,70
479,44	1236,68
479,65	1250,72
479,86	1171,73
480,07	1184,02
480,28	1217,37
480,48	1212,10
480,69	1184,60
480,90	1192,80
481,11	1248,68
481,32	1259,21
481,52	1204,50
481,73	1245,46
481,94	1257,16
482,15	1268,86
482,36	1181,09
482,56	1191,63
482,77	1225,27
482,98	1236,97
483,19	1168,51
483,40	1208,30
483,60	1259,50
483,81	1257,75
484,02	1177,00
484,23	1194,55
484,43	1245,16
484,64	1241,07
484,85	1177,58
485,06	1212,69
485,27	1257,16
485,47	1268,57
485,68	1213,28
485,89	1232,29
486,10	1290,22
486,31	1292,56
486,51	1184,90
486,72	1188,41
486,93	1241,36
487,14	1257,75
487,34	1170,85
487,55	1160,32
487,76	1202,16
487,97	1234,34
488,17	1174,66
488,38	1209,47
488,59	1271,50
488,80	1265,64
489,00	1208,89
489,21	1223,52
489,42	1224,39
489,63	1234,93
489,84	1141,89
490,04	1101,51
490,25	1181,68
490,46	1198,06
490,67	1139,26
490,87	1203,62
491,08	1286,71
491,29	1283,20
491,50	1255,99
491,70	1239,02
491,91	1288,46
492,12	1306,90
492,32	1237,56
492,53	1259,79
492,74	1341,13
492,95	1333,23
493,15	1299,58
493,36	1313,33
493,57	1329,42
493,78	1335,86
493,98	1230,54
494,19	1214,45
494,40	1236,39
494,61	1240,19
494,81	1181,09
495,02	1224,10
495,23	1296,07
495,43	1296,66
495,64	1250,14
495,85	1260,96
496,06	1310,11
496,26	1297,83
496,47	1230,24
496,68	1239,02
496,89	1312,75
497,09	1314,80
497,30	1278,52
497,51	1251,02
497,71	1293,15
497,92	1279,10
498,13	1175,53
498,33	1163,25
498,54	1174,95
498,75	1177,87
498,96	1138,67
499,16	1148,33
499,37	1220,30
499,58	1246,04
499,78	1187,82
499,99	1206,25
500,20	1248,68
500,40	1257,45
500,61	1214,74
500,82	1230,24
501,03	1290,81
501,23	1295,19
501,44	1248,38
501,65	1286,12
501,85	1312,46
502,06	1305,43
502,27	1221,76
502,47	1206,55
502,68	1302,51
502,89	1325,33
503,09	1241,07
503,30	1250,72
503,51	1302,51
503,71	1318,60
503,92	1250,72
504,13	1223,22
504,33	1226,44
504,54	1238,14
504,75	1193,67
504,95	1226,73
505,16	1269,16
505,37	1301,05
505,57	1247,80
505,78	1312,16
505,99	1357,22
506,19	1362,78
506,40	1281,15
506,61	1311,87
506,81	1377,70
507,02	1354,29
507,23	1273,84
507,43	1297,24
507,64	1379,75
507,85	1395,25
508,05	1304,85
508,26	1298,70
508,47	1395,54
508,67	1393,20
508,88	1324,74
509,09	1287,29
509,29	1326,21
509,50	1343,76
509,71	1267,11
509,91	1252,19
510,12	1291,98
510,32	1297,24
510,53	1237,56
510,74	1231,71
510,94	1335,86
511,15	1343,76
511,36	1270,03
511,56	1303,97
511,77	1373,02
511,98	1383,55
512,18	1329,72
512,39	1272,96
512,59	1289,05
512,80	1286,42
513,01	1233,75
513,21	1223,81
513,42	1254,53
513,63	1283,49
513,83	1234,63
514,04	1243,70
514,24	1289,05
514,45	1273,25
514,66	1207,72
514,86	1240,78
515,07	1273,25
515,27	1256,87
515,48	1217,08
515,69	1181,39
515,89	1206,55
516,10	1197,18
516,30	1125,80
516,51	1119,07
516,72	1180,80
516,92	1186,94
517,13	1182,26
517,33	1188,70
517,54	1250,43
517,75	1252,19
517,95	1217,96
518,16	1213,57
518,36	1264,47
518,57	1289,34
518,78	1258,92
518,98	1242,82
519,19	1299,00
519,39	1287,29
519,60	1229,95
519,81	1227,61
520,01	1268,57
520,22	1266,52
520,42	1224,39
520,63	1241,36
520,83	1280,57
521,04	1280,86
521,25	1236,68
521,45	1252,77
521,66	1255,99
521,86	1243,41
522,07	1189,58
522,27	1211,81
522,48	1270,91
522,69	1254,53
522,89	1167,05
523,10	1226,73
523,30	1301,92
523,51	1299,00
523,71	1228,78
523,92	1220,59
524,12	1313,63
524,33	1307,48
524,54	1231,12
524,74	1217,66
524,95	1289,64
525,15	1294,02
525,36	1255,11
525,56	1221,47
525,77	1299,00
525,97	1308,07
526,18	1258,33
526,39	1228,49
526,59	1324,16
526,80	1329,72
527,00	1273,25
527,21	1274,13
527,41	1343,47
527,62	1343,47
527,82	1298,41
528,03	1276,18
528,23	1312,75
528,44	1319,48
528,64	1246,04
528,85	1212,69
529,05	1293,44
529,26	1291,10
529,47	1220,00
529,67	1199,52
529,88	1251,31
530,08	1251,60
530,29	1198,65
530,49	1206,84
530,70	1283,49
530,90	1278,81
531,11	1246,04
531,31	1264,77
531,52	1339,66
531,72	1351,95
531,93	1277,64
532,13	1231,41
532,34	1279,69
532,54	1295,19
532,75	1212,40
532,95	1196,01
533,16	1254,53
533,36	1246,34
533,57	1232,88
533,77	1294,32
533,98	1313,63
534,18	1327,38
534,39	1265,35
534,59	1279,40
534,80	1366,87
535,00	1349,61
535,21	1239,61
535,41	1244,29
535,62	1273,84
535,82	1274,42
536,03	1190,16
536,23	1130,48
536,44	1135,45
536,64	1145,98
536,85	1103,86
537,05	1145,11
537,26	1198,94
537,46	1218,25
537,67	1182,56
537,87	1251,89
538,07	1301,92
538,28	1314,21
538,48	1234,34
538,69	1239,90
538,89	1278,23
539,10	1281,15
539,30	1203,62
539,51	1210,64
539,71	1212,40
539,92	1227,61
540,12	1169,39
540,33	1192,50
540,53	1241,95
540,74	1245,46
540,94	1167,93
541,14	1218,54
541,35	1272,37
541,55	1271,20
541,76	1205,08
541,96	1200,40
542,17	1260,67
542,37	1262,13
542,58	1206,55
542,78	1197,48
542,99	1239,61
543,19	1241,95
543,39	1206,25
543,60	1217,96
543,80	1297,24
544,01	1292,27
544,21	1235,80
544,42	1259,79
544,62	1307,19
544,82	1300,46
545,03	1218,83
545,23	1254,82
545,44	1342,59
545,64	1327,96
545,85	1258,62
546,05	1271,20
546,25	1310,11
546,46	1330,30
546,66	1234,05
546,87	1254,23
547,07	1302,80
547,28	1313,63
547,48	1240,78
547,68	1251,60
547,89	1277,05
548,09	1285,83
548,30	1187,82
548,50	1279,69
548,70	1343,76
548,91	1343,17
549,11	1296,07
549,32	1357,80
549,52	1390,86
549,72	1395,54
549,93	1258,04
550,13	1273,25
550,34	1363,36
550,54	1351,66
550,74	1251,89
550,95	1279,69
551,15	1319,48
551,36	1339,08
551,56	1265,64
551,76	1293,15
551,97	1356,93
552,17	1354,88
552,38	1272,37
552,58	1288,76
552,78	1321,82
552,99	1301,92
553,19	1186,65
553,40	1215,03
553,60	1275,88
553,80	1280,27
554,01	1203,91
554,21	1268,57
554,41	1345,81
554,62	1368,92
554,82	1290,22
555,03	1311,87
555,23	1363,95
555,43	1374,19
555,64	1263,89
555,84	1262,72
556,04	1338,49
556,25	1334,98
556,45	1255,99
556,65	1255,11
556,86	1331,76
557,06	1342,88
557,27	1282,61
557,47	1234,05
557,67	1298,70
557,88	1312,75
558,08	1244,29
558,28	1245,46
558,49	1255,99
558,69	1258,33
558,89	1198,06
559,10	1197,77
559,30	1224,69
559,50	1229,95
559,71	1136,04
559,91	1184,60
560,11	1218,83
560,32	1224,98
560,52	1158,57
560,72	1212,10
560,93	1307,77
561,13	1320,35
561,33	1265,94
561,54	1265,35
561,74	1291,39
561,94	1296,36
562,15	1200,11
562,35	1225,56
562,55	1292,27
562,76	1281,74
562,96	1229,37
563,16	1254,82
563,37	1301,05
563,57	1282,32
563,77	1162,37
563,98	1211,52
564,18	1224,69
564,38	1249,85
564,59	1211,81
564,79	1283,78
564,99	1383,84
565,19	1398,47
565,40	1272,67
565,60	1291,10
565,80	1318,89
566,01	1329,42
566,21	1211,23
566,41	1201,28
566,62	1249,26
566,82	1274,42
567,02	1253,36
567,23	1292,56
567,43	1336,15
567,63	1320,06
567,83	1245,46
568,04	1275,88
568,24	1359,27
568,44	1337,91
568,65	1255,11
568,85	1268,57
569,05	1313,04
569,25	1299,88
569,46	1208,01
569,66	1150,96
569,86	1194,55
570,07	1203,91
570,27	1124,04
570,47	1124,33
570,67	1199,82
570,88	1214,45
571,08	1169,39
571,28	1217,66
571,48	1277,93
571,69	1290,81
571,89	1263,89
572,09	1259,50
572,29	1352,83
572,50	1367,17
572,70	1284,37
572,90	1273,25
573,11	1335,57
573,31	1328,55
573,51	1270,33
573,71	1270,33
573,92	1277,35
574,12	1283,78
574,32	1238,14
574,52	1234,05
574,73	1274,13
574,93	1276,47
575,13	1173,78
575,33	1243,12
575,54	1276,47
575,74	1271,50
575,94	1208,30
576,14	1233,46
576,35	1258,33
576,55	1281,44
576,75	1191,04
576,95	1235,80
577,15	1281,74
577,36	1277,05
577,56	1221,47
577,76	1243,41
577,96	1283,49
578,17	1262,13
578,37	1178,17
578,57	1232,29
578,77	1288,76
578,97	1271,79
579,18	1259,21
579,38	1263,89
579,58	1370,97
579,78	1381,21
579,99	1284,95
580,19	1295,19
580,39	1360,73
580,59	1328,25
580,79	1269,74
581,00	1241,07
581,20	1292,27
581,40	1288,17
581,60	1232,00
581,80	1254,53
582,01	1304,26
582,21	1312,16
582,41	1250,72
582,61	1249,55
582,81	1316,55
583,02	1311,87
583,22	1218,83
583,42	1202,45
583,62	1293,44
583,82	1306,31
584,03	1238,44
584,23	1202,45
584,43	1266,52
584,63	1284,08
584,83	1233,17
585,04	1166,17
585,24	1213,86
585,44	1221,47
585,64	1172,32
585,84	1174,36
586,04	1235,80
586,25	1225,86
586,45	1196,31
586,65	1200,69
586,85	1257,16
587,05	1275,01
587,25	1205,38
587,46	1201,87
587,66	1253,06
587,86	1234,63
588,06	1167,05
588,26	1165,00
588,46	1229,37
588,67	1244,87
588,87	1179,92
589,07	1200,11
589,27	1240,48
589,47	1248,97
589,67	1198,65
589,88	1156,22
590,08	1209,76
590,28	1209,18
590,48	1165,59
590,68	1179,63
590,88	1225,27
591,08	1218,25
591,29	1184,31
591,49	1188,11
591,69	1221,76
591,89	1215,03
592,09	1180,22
592,29	1190,45
592,49	1242,53
592,70	1231,41
592,90	1169,39
593,10	1198,94
593,30	1266,81
593,50	1267,99
593,70	1204,50
593,90	1219,71
594,10	1266,81
594,31	1267,69
594,51	1201,87
594,71	1250,43
594,91	1292,27
595,11	1289,93
595,31	1226,15
595,51	1266,81
595,71	1301,92
595,92	1303,68
596,12	1183,73
596,32	1226,15
596,52	1271,79
596,72	1264,77
596,92	1184,60
597,12	1175,83
597,32	1260,09
597,52	1264,18
597,73	1174,36
597,93	1162,37
598,13	1223,22
598,33	1229,07
598,53	1185,77
598,73	1178,46
598,93	1208,59
599,13	1190,75
599,33	1158,27
599,53	1168,51
599,73	1222,34
599,94	1236,10
600,14	1170,56
600,34	1216,49
600,54	1282,03
600,74	1290,81
600,94	1215,32
601,14	1276,76
601,34	1346,69
601,54	1329,13
601,74	1259,79
601,94	1262,72
602,14	1298,70
602,35	1311,87
602,55	1197,77
602,75	1167,93
602,95	1220,30
603,15	1210,06
603,35	1157,39
603,55	1191,04
603,75	1229,95
603,95	1216,20
604,15	1174,66
604,35	1171,44
604,55	1200,11
604,75	1186,07
604,95	1114,68
605,15	1141,30
605,35	1206,55
605,55	1199,82
605,76	1159,15
605,96	1229,07
606,16	1280,57
606,36	1282,91
606,56	1214,15
606,76	1241,07
606,96	1265,94
607,16	1262,43
607,36	1168,51
607,56	1197,18
607,76	1258,04
607,96	1259,50
608,16	1170,56
608,36	1205,08
608,56	1246,04
608,76	1253,36
608,96	1175,24
609,16	1228,49
609,36	1253,65
609,56	1266,81
609,76	1199,82
609,96	1215,32
610,16	1256,58
610,36	1261,84
610,56	1147,16
610,76	1140,72
610,96	1184,02
611,16	1183,43
611,36	1118,48
611,56	1164,42
611,76	1212,69
611,96	1221,47
612,16	1188,11
612,36	1182,26
612,56	1241,65
612,76	1247,80
612,96	1136,04
613,16	1140,43
613,36	1155,35
613,56	1158,86
613,76	1128,43
613,96	1115,56
614,16	1207,72
614,36	1220,88
614,56	1172,32
614,76	1198,94
614,96	1281,44
615,16	1257,75
615,36	1212,40
615,56	1222,05
615,76	1299,29
615,96	1299,58
616,16	1238,73
616,36	1262,72
616,56	1307,48
616,76	1321,82
616,96	1224,98
617,16	1183,43
617,36	1236,39
617,56	1246,04
617,76	1154,47
617,96	1190,45
618,16	1245,75
618,36	1239,02
618,56	1190,45
618,76	1196,01
618,96	1231,12
619,16	1208,89
619,36	1129,60
619,56	1138,09
619,76	1144,81
619,96	1155,35
620,16	1076,65
620,36	1086,01
620,56	1142,77
620,76	1150,67
620,95	1075,18
621,15	1112,05
621,35	1154,47
621,55	1162,66
621,75	1117,31
621,95	1127,55
622,15	1188,99
622,35	1202,45
622,55	1143,94
622,75	1129,60
622,95	1195,14
623,15	1179,63
623,35	1121,70
623,55	1108,24
623,75	1120,82
623,95	1138,67
624,14	1112,92
624,34	1129,60
624,54	1150,37
624,74	1147,45
624,94	1086,89
625,14	1135,74
625,34	1199,82
625,54	1211,52
625,74	1122,58
625,94	1201,57
626,14	1253,65
626,34	1255,99
626,54	1181,97
626,73	1152,71
626,93	1162,95
627,13	1178,17
627,33	1066,99
627,53	1066,70
627,73	1178,17
627,93	1178,17
628,13	1125,51
628,33	1150,08
628,53	1172,90
628,72	1191,04
628,92	1128,14
629,12	1071,97
629,32	1162,95
629,52	1163,25
629,72	1107,07
629,92	1124,63
630,12	1176,12
630,32	1189,58
630,52	1128,14
630,71	1095,96
630,91	1149,50
631,11	1163,25
631,31	1108,83
631,51	1106,78
631,71	1130,48
631,91	1133,40
632,11	1057,04
632,30	1063,19
632,50	1088,35
632,70	1091,86
632,90	1038,03
633,10	1049,73
633,30	1090,10
633,50	1092,15
633,69	1055,58
633,89	1089,23
634,09	1148,03
634,29	1145,69
634,49	1090,98
634,69	1129,60
634,89	1201,57
635,09	1180,51
635,28	1101,22
635,48	1083,96
635,68	1129,31
635,88	1139,84
636,08	1073,14
636,28	1084,84
636,47	1156,22
636,67	1172,61
636,87	1130,48
637,07	1181,97
637,27	1211,23
637,47	1212,40
637,66	1135,74
637,86	1145,40
638,06	1188,70
638,26	1184,60
638,46	1089,23
638,66	1114,39
638,85	1165,29
639,05	1172,61
639,25	1093,32
639,45	1117,31
639,65	1175,24
639,85	1183,43
640,04	1131,06
640,24	1105,32
640,44	1162,08
640,64	1179,63
640,84	1118,78
641,04	1129,31
641,23	1177,58
641,43	1185,19
641,63	1151,25
641,83	1206,55
642,03	1285,83
642,22	1275,01
642,42	1201,57
642,62	1240,78
642,82	1291,10
643,02	1321,52
643,21	1188,11
643,41	1136,04
643,61	1211,23
643,81	1207,42
644,01	1102,39
644,20	1095,08
644,40	1145,98
644,60	1157,10
644,80	1116,44
645,00	1111,46
645,19	1183,43
645,39	1189,28
645,59	1140,72
645,79	1124,63
645,98	1171,44
646,18	1180,22
646,38	1095,37
646,58	1097,71
646,78	1135,16
646,97	1141,60
647,17	1082,79
647,37	1139,55
647,57	1193,09
647,76	1210,35
647,96	1149,79
648,16	1200,11
648,36	1241,65
648,55	1224,69
648,75	1128,14
648,95	1192,21
649,15	1265,64
649,35	1274,71
649,54	1200,11
649,74	1188,41
649,94	1258,04
650,14	1268,57
650,33	1150,96
650,53	1110,00
650,73	1156,22
650,93	1141,60
651,12	1124,63
651,32	1128,14
651,52	1159,44
651,71	1154,47
651,91	1103,56
652,11	1091,27
652,31	1160,03
652,50	1144,81
652,70	1079,86
652,90	1105,90
653,10	1160,61
653,29	1170,27
653,49	1117,31
653,69	1153,01
653,89	1205,08
654,08	1219,13
654,28	1143,94
654,48	1166,76
654,67	1189,58
654,87	1193,97
655,07	1083,67
655,27	1083,08
655,46	1137,21
655,66	1138,67
655,86	1044,17
656,05	1109,71
656,25	1158,86
656,45	1159,74
656,65	1088,35
656,84	1112,34
657,04	1142,77
657,24	1138,09
657,43	1045,05
657,63	1057,92
657,83	1150,08
658,02	1162,66
658,22	1064,07
658,42	1104,73
658,62	1149,20
658,81	1147,74
659,01	1091,57
659,21	1060,85
659,40	1092,15
659,60	1103,27
659,80	1028,67
659,99	1105,32
660,19	1150,67
660,39	1158,27
660,58	1098,59
660,78	1142,47
660,98	1179,34
661,17	1199,82
661,37	1093,62
661,57	1106,20
661,76	1169,10
661,96	1178,75
662,16	1105,61
662,35	1144,23
662,55	1146,57
662,75	1154,76
662,94	1101,22
663,14	1078,69
663,34	1143,35
663,53	1141,30
663,73	1049,44
663,93	1111,75
664,12	1160,61
664,32	1161,20
664,52	1101,51
664,71	1106,78
664,91	1169,10
665,11	1191,33
665,30	1120,24
665,50	1118,48
665,70	1168,51
665,89	1176,70
666,09	1107,07
666,29	1099,47
666,48	1146,86
666,68	1149,79
666,87	1090,10
667,07	1121,41
667,27	1214,15
667,46	1208,89
667,66	1143,06
667,86	1156,52
668,05	1198,35
668,25	1188,99
668,44	1103,27
668,64	1029,54
668,84	1082,50
669,03	1097,71
669,23	1010,53
669,43	1014,33
669,62	1101,81
669,82	1113,80
670,01	1096,54
670,21	1113,80
670,41	1171,44
670,60	1186,07
670,80	1110,00
670,99	1098,88
671,19	1157,69
671,39	1150,08
671,58	1088,06
671,78	1094,20
671,97	1152,71
672,17	1155,93
672,37	1083,38
672,56	1091,27
672,76	1155,93
672,95	1161,20
673,15	1083,96
673,35	1096,25
673,54	1167,93
673,74	1192,50
673,93	1118,19
674,13	1147,16
674,33	1186,65
674,52	1195,72
674,72	1119,65
674,91	1169,10
675,11	1217,08
675,30	1217,37
675,50	1120,53
675,70	1140,72
675,89	1191,33
676,09	1201,87
676,28	1109,41
676,48	1134,57
676,67	1211,81
676,87	1221,47
677,07	1150,67
677,26	1194,84
677,46	1272,08
677,65	1249,85
677,85	1161,49
678,04	1164,42
678,24	1243,41
678,43	1244,58
678,63	1158,27
678,83	1217,37
679,02	1301,34
679,22	1300,75
679,41	1210,06
679,61	1164,71
679,80	1209,18
680,00	1196,60
680,19	1063,19
680,39	1069,62
680,58	1140,72
680,78	1152,13
680,98	1123,16
681,17	1138,38
681,37	1195,43
681,56	1191,63
681,76	1095,37
681,95	1089,52
682,15	1145,40
682,34	1146,57
682,54	1088,64
682,73	1139,26
682,93	1186,07
683,12	1175,53
683,32	1110,88
683,51	1163,83
683,71	1270,03
683,90	1261,84
684,10	1152,71
684,29	1151,84
684,49	1215,62
684,68	1215,62
684,88	1105,61
685,07	1055,87
685,27	1134,87
685,46	1159,74
685,66	1105,61
685,85	1142,77
686,05	1195,43
686,24	1191,33
686,44	1117,61
686,63	1075,18
686,83	1108,24
687,02	1113,51
687,22	1039,20
687,41	1085,13
687,61	1175,83
687,80	1201,28
688,00	1162,95
688,19	1153,88
688,39	1233,75
688,58	1217,37
688,78	1128,14
688,97	1121,70
689,17	1156,22
689,36	1168,22
689,56	1111,17
689,75	1105,90
689,95	1181,97
690,14	1180,51
690,34	1083,38
690,53	1148,03
690,73	1193,38
690,92	1207,72
691,11	1120,53
691,31	1133,70
691,50	1150,96
691,70	1149,20
691,89	1033,64
692,09	1052,95
692,28	1124,33
692,48	1135,16
692,67	1047,68
692,87	1077,23
693,06	1180,51
693,25	1196,01
693,45	1117,90
693,64	1077,52
693,84	1172,02
694,03	1174,66
694,23	1107,37
694,42	1114,68
694,62	1137,21
694,81	1141,60
695,00	1102,98
695,20	1077,23
695,39	1109,12
695,59	1132,53
695,78	1037,15
695,98	1070,50
696,17	1129,89
696,36	1141,30
696,56	1069,92
696,75	1111,46
696,95	1165,00
697,14	1150,96
697,33	1079,86
697,53	1078,99
697,72	1116,14
697,92	1100,93
698,11	1020,77
698,31	1030,42
698,50	1088,35
698,69	1090,98
698,89	1031,01
699,08	1049,44
699,28	1117,02
699,47	1136,92
699,66	1057,63
699,86	1070,21
700,05	1141,60
700,25	1149,50
700,44	1080,16
700,63	1107,95
700,83	1141,60
701,02	1148,03
701,22	1078,11
701,41	1055,87
701,60	1107,37
701,80	1124,63
701,99	1032,47
702,18	1031,01
702,38	1083,08
702,57	1090,10
702,77	1039,78
702,96	1024,86
703,15	1110,58
703,35	1134,28
703,54	1094,49
703,73	1071,97
703,93	1136,62
704,12	1124,92
704,32	1076,65
704,51	1084,55
704,70	1121,99
704,90	1123,16
705,09	1090,69
705,28	1099,17
705,48	1160,03
705,67	1164,71
705,86	1064,36
706,06	1089,52
706,25	1133,99
706,44	1134,28
706,64	1058,51
706,83	1070,80
707,03	1133,70
707,22	1134,57
707,41	1058,21
707,61	1100,05
707,80	1172,02
707,99	1179,34
708,19	1128,43
708,38	1125,80
708,57	1178,17
708,77	1189,87
708,96	1097,13
709,15	1127,85
709,35	1201,87
709,54	1190,75
709,73	1127,55
709,93	1109,41
710,12	1147,74
710,31	1160,03
710,50	1064,94
710,70	1057,63
710,89	1100,34
711,08	1100,05
711,28	1056,17
711,47	1065,24
711,66	1150,67
711,86	1149,20
712,05	1095,96
712,24	1138,96
712,44	1189,58
712,63	1181,09
712,82	1129,31
713,02	1083,96
713,21	1151,25
713,40	1131,65
713,59	1037,74
713,79	1067,58
713,98	1138,67
714,17	1128,72
714,37	1075,77
714,56	1079,57
714,75	1219,13
714,94	1241,07
715,14	1160,61
715,33	1219,13
715,52	1277,35
715,72	1280,86
715,91	1194,55
716,10	1175,83
716,29	1213,28
716,49	1213,28
716,68	1096,83
716,87	1125,21
717,06	1163,83
717,26	1164,42
717,45	1039,49
717,64	1043,88
717,84	1084,55
718,03	1079,28
718,22	995,31
718,41	1021,35
718,61	1067,87
718,80	1084,55
718,99	1029,84
719,18	1090,40
719,38	1155,35
719,57	1152,13
719,76	1088,64
719,95	1159,15
720,15	1193,09
720,34	1200,11
720,53	1102,68
720,72	1082,79
720,92	1132,82
721,11	1121,12
721,30	1014,33
721,49	1037,15
721,69	1063,77
721,88	1057,04
722,07	1014,33
722,26	1078,99
722,45	1140,43
722,65	1159,74
722,84	1090,10
723,03	1093,03
723,22	1107,66
723,42	1094,79
723,61	971,32
723,80	992,68
723,99	1025,74
724,18	1031,01
724,38	992,09
724,57	1106,78
724,76	1179,34
724,95	1204,21
725,15	1137,21
725,34	1184,90
725,53	1214,74
725,72	1217,37
725,91	1079,57
726,11	1098,30
726,30	1184,60
726,49	1186,36
726,68	1080,74
726,87	1109,41
727,07	1169,98
727,26	1191,04
727,45	1106,20
727,64	1084,55
727,83	1140,13
728,03	1149,20
728,22	1100,64
728,41	1071,67
728,60	1134,87
728,79	1150,37
728,98	1078,69
729,18	1080,45
729,37	1172,61
729,56	1150,37
729,75	1118,19
729,94	1117,31
730,14	1153,88
730,33	1134,87
730,52	1062,31
730,71	1040,66
730,90	1119,65
731,09	1113,80
731,29	1030,42
731,48	1036,86
731,67	1139,84
731,86	1153,59
732,05	1078,11
732,24	1106,20
732,43	1221,17
732,63	1236,39
732,82	1182,85
733,01	1131,36
733,20	1175,83
733,39	1175,83
733,58	1074,31
733,78	1004,67
733,97	1024,57
734,16	1028,08
734,35	981,27
734,54	996,19
734,73	1052,36
734,92	1071,97
735,11	1015,21
735,31	1052,07
735,50	1114,97
735,69	1121,99
735,88	1034,81
736,07	1019,60
736,26	1095,66
736,45	1121,70
736,64	1055,00
736,84	1063,48
737,03	1176,41
737,22	1201,57
737,41	1159,44
737,60	1124,33
737,79	1193,38
737,98	1186,36
738,17	1101,22
738,37	1076,35
738,56	1115,85
738,75	1110,88
738,94	1062,02
739,13	1008,77
739,32	1115,85
739,51	1119,65
739,70	1031,59
739,89	1033,64
740,08	1087,76
740,28	1084,55
740,47	1042,42
740,66	1019,01
740,85	1052,66
741,04	1064,65
741,23	1022,81
741,42	1074,31
741,61	1115,27
741,80	1129,89
741,99	1044,46
742,18	1069,92
742,37	1099,17
742,57	1087,47
742,76	990,92
742,95	1045,34
743,14	1112,92
743,33	1122,29
743,52	1074,31
743,71	1089,52
743,90	1163,25
744,09	1154,47
744,28	1070,21
744,47	1056,46
744,66	1088,93
744,85	1084,55
745,04	1040,08
745,23	1031,01
745,43	1106,20
745,62	1089,81
745,81	1041,25
746,00	1086,01
746,19	1164,42
746,38	1169,39
746,57	1118,19
746,76	1088,93
746,95	1190,16
747,14	1168,51
747,33	1097,71
747,52	1119,95
747,71	1194,84
747,90	1181,68
748,09	1150,08
748,28	1142,47
748,47	1234,63
748,66	1224,10
748,85	1119,95
749,04	1099,47
749,23	1131,36
749,42	1111,17
749,61	1020,47
749,80	995,61
749,99	1045,63
750,18	1047,68
750,37	984,49
750,56	1021,35
750,75	1080,16
750,94	1097,42
751,13	1055,58
751,32	1055,29
751,51	1126,38
751,70	1127,55
751,90	1069,92
752,09	1097,42
752,28	1138,67
752,47	1141,30
752,66	1100,64
752,84	1079,28
753,03	1152,42
753,22	1158,57
753,41	1086,89
753,60	1128,43
753,79	1162,95
753,98	1164,71
754,17	1121,70
754,36	1096,25
754,55	1144,52
754,74	1141,01
754,93	1028,08
755,12	1062,60
755,31	1145,98
755,50	1148,91
755,69	1101,81
755,88	1078,99
756,07	1126,97
756,26	1137,79
756,45	1064,36
756,64	1100,64
756,83	1172,02
757,02	1161,49
757,21	1126,38
757,40	1150,67
757,59	1211,81
757,78	1204,21
757,97	1097,13
758,16	1137,79
758,35	1185,77
758,54	1185,77
758,73	1112,05
758,92	1162,08
759,11	1214,45
759,30	1213,86
759,48	1095,96
759,67	1104,15
759,86	1198,35
760,05	1208,01
760,24	1108,83
760,43	1093,32
760,62	1155,05
760,81	1158,57
761,00	1102,39
761,19	1081,03
761,38	1160,03
761,57	1154,76
761,76	1122,87
761,95	1142,77
762,14	1186,07
762,32	1190,75
762,51	1127,55
762,70	1089,52
762,89	1155,05
763,08	1146,86
763,27	1070,50
763,46	1096,25
763,65	1165,29
763,84	1153,01
764,03	1089,52
764,22	1093,03
764,40	1173,78
764,59	1152,71
764,78	1086,30
764,97	1124,92
765,16	1184,90
765,35	1192,80
765,54	1116,14
765,73	1101,81
765,92	1200,99
766,11	1204,21
766,29	1087,76
766,48	1078,99
766,67	1165,88
766,86	1176,41
767,05	1124,63
767,24	1066,41
767,43	1122,58
767,62	1127,55
767,81	1085,72
767,99	1064,36
768,18	1117,02
768,37	1111,75
768,56	1092,45
768,75	1099,47
768,94	1194,55
769,13	1212,98
769,31	1159,74
769,50	1165,59
769,69	1188,99
769,88	1170,85
770,07	1102,10
770,26	1069,92
770,45	1128,72
770,64	1128,72
770,82	1062,60
771,01	1106,78
771,20	1165,59
771,39	1169,39
771,58	1110,88
771,77	1115,56
771,95	1162,95
772,14	1180,51
772,33	1120,53
772,52	1126,38
772,71	1179,04
772,90	1188,70
773,08	1097,71
773,27	1112,92
773,46	1160,61
773,65	1160,03
773,84	1084,55
774,03	1092,74
774,21	1162,66
774,40	1167,93
774,59	1105,32
774,78	1099,17
774,97	1137,79
775,16	1154,47
775,34	1078,99
775,53	1066,11
775,72	1135,45
775,91	1136,62
776,10	1076,35
776,28	1085,42
776,47	1146,28
776,66	1155,93
776,85	1095,37
777,04	1065,82
777,23	1150,96
777,41	1159,15
777,60	1098,00
777,79	1128,43
777,98	1174,66
778,17	1183,14
778,35	1145,98
778,54	1143,06
778,73	1229,07
778,92	1229,07
779,10	1126,97
779,29	1140,13
779,48	1174,66
779,67	1174,36
779,86	1096,54
780,04	1047,97
780,23	1101,22
780,42	1094,49
780,61	1038,61
780,79	1052,95
780,98	1125,80
781,17	1112,05
781,36	1068,45
781,55	1092,45
781,73	1175,24
781,92	1168,51
782,11	1108,54
782,30	1088,35
782,48	1129,02
782,67	1151,84
782,86	1078,99
783,05	1059,09
783,23	1134,57
783,42	1144,52
783,61	1088,93
783,80	1091,27
783,98	1160,91
784,17	1162,95
784,36	1118,78
784,55	1098,30
784,73	1117,02
784,92	1136,04
785,11	1095,37
785,30	1089,23
785,48	1152,42
785,67	1138,96
785,86	1086,89
786,05	1124,92
786,23	1148,62
786,42	1157,39
786,61	1066,41
786,79	1034,81
786,98	1102,68
787,17	1092,45
787,36	1002,63
787,54	1027,20
787,73	1045,93
787,92	1056,75
788,10	1008,77
788,29	1026,32
788,48	1087,76
788,67	1109,41
788,85	1040,37
789,04	1043,59
789,23	1064,65
789,41	1074,89
789,60	1000,29
789,79	998,53
789,98	1053,24
790,16	1065,82
790,35	1038,91
790,54	1078,11
790,72	1112,63
790,91	1103,27
791,10	1041,25
791,28	1069,33
791,47	1093,62
791,66	1079,86
791,84	1011,99
792,03	1033,64
792,22	1100,64
792,40	1118,19
792,59	1016,38
792,78	1061,43
792,96	1105,90
793,15	1104,15
793,34	1044,17
793,53	1057,92
793,71	1167,05
793,90	1191,33
794,09	1108,54
794,27	1150,08
794,46	1236,68
794,65	1240,78
794,83	1164,12
795,02	1094,79
795,20	1129,60
795,39	1113,80
795,58	1045,34
795,76	1018,72
795,95	1109,71
796,14	1112,92
796,32	1069,33
796,51	1059,38
796,70	1135,74
796,88	1117,90
797,07	1062,60
797,26	1032,47
797,44	1098,30
797,63	1110,29
797,81	1076,06
798,00	1168,51
798,19	1240,19
798,37	1234,34
798,56	1180,51
798,75	1227,61
798,93	1257,75
799,12	1258,92
799,31	1108,54
799,49	1111,75
799,68	1235,80
799,86	1225,27
800,05	1124,04
800,24	1140,43
800,42	1213,86
800,61	1207,72
800,79	1144,81
800,98	1126,68
801,17	1201,87
801,35	1181,09
801,54	1108,83
801,72	1141,30
801,91	1227,32
802,10	1222,34
802,28	1124,92
802,47	1124,33
802,65	1242,82
802,84	1264,47
803,03	1171,15
803,21	1167,34
803,40	1233,75
803,58	1238,14
803,77	1171,15
803,96	1124,63
804,14	1208,89
804,33	1206,84
804,51	1146,86
804,70	1114,39
804,88	1182,56
805,07	1188,41
805,26	1119,65
805,44	1067,87
805,63	1145,98
805,81	1133,70
806,00	1106,49
806,18	1099,17
806,37	1155,35
806,56	1174,66
806,74	1146,28
806,93	1153,88
807,11	1217,96
807,30	1219,42
807,48	1147,16
807,67	1158,57
807,85	1202,45
808,04	1181,68
808,23	1096,54
808,41	1048,56
808,60	1071,67
808,78	1078,99
808,97	997,07
809,15	998,24
809,34	1059,68
809,52	1049,15
809,71	1034,22
809,89	1069,92
810,08	1106,20
810,26	1111,17
810,45	1058,80
810,64	1083,96
810,82	1137,50
811,01	1134,28
811,19	1080,16
811,38	1114,39
811,56	1208,01
811,75	1203,91
811,93	1141,30
812,12	1206,84
812,30	1285,54
812,49	1266,52
812,67	1201,28
812,86	1183,43
813,04	1238,73
813,23	1221,76
813,41	1107,66
813,60	1093,32
813,78	1135,16
813,97	1140,43
814,15	1069,33
814,34	1085,13
814,52	1076,06
814,71	1071,38
814,89	993,56
815,08	1050,61
815,26	1105,32
815,45	1098,88
815,63	1038,32
815,82	1117,61
816,00	1193,67
816,19	1209,47
816,37	1120,53
816,56	1106,78
816,74	1142,47
816,93	1141,01
817,11	1069,62
817,29	1035,10
817,48	1095,96
817,66	1093,32
817,85	1049,73
818,03	1085,72
818,22	1119,07
818,40	1141,30
818,59	1096,25
818,77	1050,32
818,96	1099,17
819,14	1111,17
819,33	1048,56
819,51	1111,17
819,69	1162,37
819,88	1161,49
820,06	1151,25
820,25	1157,98
820,43	1230,54
820,62	1227,90
820,80	1122,29
820,99	1097,71
821,17	1168,22
821,35	1154,47
821,54	1095,96
821,72	1063,19
821,91	1120,82
822,09	1133,70
822,28	1099,47
822,46	1074,89
822,64	1133,40
822,83	1139,55
823,01	1079,86
823,20	1102,98
823,38	1131,36
823,57	1132,23
823,75	1084,84
823,93	1095,96
824,12	1150,67
824,30	1154,76
824,49	1075,48
824,67	1075,77
824,85	1139,26
825,04	1146,57
825,22	1088,93
825,41	1090,40
825,59	1153,59
825,77	1158,57
825,96	1118,48
826,14	1098,00
826,33	1150,37
826,51	1153,30
826,69	1087,76
826,88	1108,83
827,06	1145,11
827,25	1139,84
827,43	1076,65
827,61	1088,06
827,80	1143,35
827,98	1150,37
828,16	1069,62
828,35	1067,28
828,53	1094,79
828,72	1100,05
828,90	1045,34
829,08	1014,33
829,27	1072,55
829,45	1070,21
829,63	1031,30
829,82	1056,46
830,00	1073,14
830,18	1067,58
830,37	1038,91
830,55	1021,64
830,74	1064,07
830,92	1059,38
831,10	999,99
831,29	1033,93
831,47	1117,61
831,65	1108,54
831,84	1076,35
832,02	1073,72
832,20	1155,64
832,39	1179,34
832,57	1132,23
832,75	1095,37
832,94	1143,64
833,12	1160,32
833,30	1123,75
833,49	1138,09
833,67	1203,33
833,85	1225,56
834,04	1179,63
834,22	1196,89
834,40	1205,96
834,59	1206,84
834,77	1120,24
834,95	1092,15
835,14	1129,02
835,32	1120,82
835,50	1065,24
835,69	1114,97
835,87	1161,20
836,05	1149,50
836,23	1123,46
836,42	1095,37
836,60	1188,99
836,78	1198,94
836,97	1112,05
837,15	1138,67
837,33	1184,02
837,52	1166,46
837,70	1151,25
837,88	1126,68
838,06	1155,05
838,25	1181,39
838,43	1091,86
838,61	1119,07
838,80	1141,30
838,98	1133,70
839,16	1054,41
839,34	1074,31
839,53	1140,72
839,71	1156,22
839,89	1094,20
840,08	1148,33
840,26	1153,01
840,44	1181,09
840,62	1129,31
840,81	1114,68
840,99	1186,07
841,17	1182,56
841,35	1105,90
841,54	1167,93
841,72	1234,34
841,90	1239,61
842,09	1181,39
842,27	1136,92
842,45	1198,94
842,63	1200,99
842,82	1127,85
843,00	1090,98
843,18	1140,13
843,36	1124,63
843,55	1084,25
843,73	1124,33
843,91	1191,63
844,09	1198,35
844,27	1156,22
844,46	1168,81
844,64	1206,55
844,82	1209,76
845,00	1112,34
845,19	1095,37
845,37	1137,50
845,55	1150,67
845,73	1073,14
845,92	1091,86
846,10	1154,18
846,28	1145,69
846,46	1097,71
846,64	1128,43
846,83	1181,09
847,01	1195,14
847,19	1133,70
847,37	1089,52
847,55	1129,60
847,74	1128,72
847,92	1028,08
848,10	1044,17
848,28	1077,23
848,46	1088,64
848,65	1077,52
848,83	1084,84
849,01	1167,05
849,19	1192,80
849,37	1126,97
849,56	1141,89
849,74	1168,22
849,92	1168,51
850,10	1133,70
850,28	1091,57
850,47	1171,73
850,65	1169,10
850,83	1095,08
851,01	1117,31
851,19	1129,60
851,37	1132,53
851,56	1096,25
851,74	1080,45
851,92	1131,94
852,10	1147,45
852,28	1107,66
852,46	1182,85
852,65	1212,98
852,83	1189,28
853,01	1121,99
853,19	1104,15
853,37	1177,87
853,55	1166,17
853,74	1071,67
853,92	1078,40
854,10	1157,10
854,28	1162,37
854,46	1124,33
854,64	1121,99
854,82	1174,07
855,01	1185,19
855,19	1130,48
855,37	1119,07
855,55	1145,40
855,73	1143,35
855,91	1070,21
856,09	1104,15
856,28	1114,97
856,46	1129,60
856,64	1074,01
856,82	1075,77
857,00	1118,19
857,18	1128,72
857,36	1038,03
857,54	1095,96
857,73	1099,76
857,91	1111,17
858,09	1076,94
858,27	1103,27
858,45	1118,78
858,63	1114,68
858,81	1032,47
858,99	1067,87
859,17	1073,14
859,36	1065,24
859,54	989,46
859,72	996,78
859,90	1044,17
860,08	1051,78
860,26	1015,50
860,44	1027,79
860,62	1063,48
860,80	1077,52
860,98	1051,19
861,17	1103,27
861,35	1143,64
861,53	1143,06
861,71	1110,88
861,89	1122,87
862,07	1152,42
862,25	1153,59
862,43	1055,00
862,61	1057,92
862,79	1086,01
862,97	1084,55
863,15	1041,25
863,33	1051,19
863,52	1083,38
863,70	1086,59
863,88	1045,63
864,06	1041,25
864,24	1119,95
864,42	1128,43
864,60	1084,84
864,78	1090,69
864,96	1164,71
865,14	1155,35
865,32	1118,78
865,50	1114,68
865,68	1169,10
865,86	1164,71
866,04	1121,70
866,22	1098,59
866,40	1154,76
866,58	1155,05
866,76	1082,50
866,94	1066,70
867,12	1105,03
867,31	1106,49
867,49	1066,70
867,67	1057,63
867,85	1138,96
868,03	1147,16
868,21	1114,97
868,39	1150,67
868,57	1196,89
868,75	1183,73
868,93	1140,13
869,11	1139,55
869,29	1176,70
869,47	1166,76
869,65	1109,41
869,83	1114,68
870,01	1150,08
870,19	1160,03
870,37	1070,50
870,55	1102,10
870,73	1134,57
870,91	1117,61
871,09	1062,02
871,27	1093,62
871,45	1143,94
871,63	1155,93
871,81	1080,74
871,99	1079,28
872,17	1113,80
872,35	1107,95
872,53	1062,31
872,71	1073,72
872,89	1156,22
873,07	1156,22
873,25	1114,68
873,43	1122,58
873,61	1176,41
873,79	1174,07
873,97	1101,51
874,15	1044,46
874,32	1116,14
874,50	1129,31
874,68	1066,99
874,86	1067,87
875,04	1135,45
875,22	1157,98
875,40	1128,43
875,58	1107,37
875,76	1163,25
875,94	1172,02
876,12	1134,28
876,30	1132,82
876,48	1188,41
876,66	1179,63
876,84	1136,92
877,02	1105,61
877,20	1147,74
877,38	1156,52
877,56	1075,77
877,74	1066,41
877,91	1163,83
878,09	1160,03
878,27	1128,14
878,45	1143,35
878,63	1153,30
878,81	1161,20
878,99	1090,69
879,17	1048,56
879,35	1077,23
879,53	1072,55
879,71	1027,79
879,89	1038,91
880,07	1069,92
880,25	1070,80
880,42	1012,57
880,60	1044,46
880,78	1120,82
880,96	1108,54
881,14	1055,87
881,32	1066,70
881,50	1117,02
881,68	1113,80
881,86	1036,27
882,04	1002,63
882,21	1045,05
882,39	1056,17
882,57	1002,92
882,75	1000,29
882,93	1044,46
883,11	1048,27
883,29	1010,53
883,47	1007,60
883,65	1088,35
883,82	1094,20
884,00	1033,93
884,18	1048,85
884,36	1090,10
884,54	1093,03
884,72	1045,05
884,90	1029,25
885,08	1097,13
885,25	1106,20
885,43	1057,34
885,61	1070,50
885,79	1138,67
885,97	1155,64
886,15	1072,26
886,33	1053,24
886,50	1104,15
886,68	1107,37
886,86	1064,94
887,04	1036,27
887,22	1083,38
887,40	1100,05
887,58	1041,25
887,75	1034,81
887,93	1045,93
888,11	1048,27
888,29	1012,87
888,47	1013,74
888,65	1067,58
888,82	1062,31
889,00	1021,64
889,18	1059,38
889,36	1091,57
889,54	1092,15
889,72	1031,30
889,89	1054,70
890,07	1111,46
890,25	1113,80
890,43	1066,11
890,61	1067,87
890,78	1114,39
890,96	1121,41
891,14	1038,03
891,32	1080,45
891,50	1153,88
891,68	1152,13
891,85	1094,79
892,03	1069,04
892,21	1111,17
892,39	1112,92
892,57	1005,85
892,74	976,59
892,92	1068,75
893,10	1084,84
893,28	1050,32
893,46	1094,20
893,63	1155,35
893,81	1177,29
893,99	1131,65
894,17	1083,96
894,34	1155,93
894,52	1154,18
894,70	1051,78
894,88	1045,93
895,06	1129,89
895,23	1119,95
895,41	1078,40
895,59	1030,13
895,77	1094,49
895,94	1103,27
896,12	1059,09
896,30	1007,89
896,48	1096,54
896,65	1098,88
896,83	1078,11
897,01	1031,88
897,19	1089,81
897,36	1074,31
897,54	1033,35
897,72	1030,42
897,90	1064,36
898,07	1064,07
898,25	1043,88
898,43	1046,22
898,61	1127,26
898,78	1117,31
898,96	1031,01
899,14	1030,42
899,32	1105,61
899,49	1099,47
899,67	1044,76
899,85	1005,26
900,03	1071,97
900,20	1076,65
900,38	1040,37
900,56	1014,04
900,73	1052,66
900,91	1058,80
901,09	1016,67
901,27	1024,28
901,44	1094,49
901,62	1094,49
901,80	1042,12
901,98	1056,17
902,15	1073,72
902,33	1093,62
902,51	1032,76
902,68	1009,06
902,86	1062,02
903,04	1064,94
903,21	1032,76
903,39	1077,52
903,57	1115,56
903,75	1112,92
903,92	1081,91
904,10	1074,31
904,28	1131,65
904,45	1117,90
904,63	1044,46
904,81	1045,34
904,98	1126,09
905,16	1114,97
905,34	1054,41
905,51	1074,89
905,69	1167,63
905,87	1166,46
906,04	1109,41
906,22	1091,57
906,40	1166,46
906,57	1172,02
906,75	1090,10
906,93	1046,80
907,10	1128,43
907,28	1132,23
907,46	1076,06
907,63	1057,34
907,81	1110,29
907,99	1103,86
908,16	1059,09
908,34	1036,56
908,52	1067,87
908,69	1059,68
908,87	1001,46
909,05	1021,06
909,22	1053,53
909,40	1063,19
909,57	1006,43
909,75	1039,20
909,93	1108,83
910,10	1120,24
910,28	1057,92
910,46	1075,18
910,63	1129,60
910,81	1120,24
910,98	1053,24
911,16	1111,17
911,34	1125,80
911,51	1122,58
911,69	1072,26
911,87	1084,25
912,04	1168,51
912,22	1167,63
912,39	1034,22
912,57	1052,95
912,75	1100,05
912,92	1117,90
913,10	1043,00
913,27	1035,69
913,45	1057,92
913,63	1063,19
913,80	1018,13
913,98	1020,47
914,15	1100,93
914,33	1090,69
914,51	1028,67
914,68	1045,05
914,86	1089,52
915,03	1095,66
915,21	1028,67
915,39	1020,47
915,56	1056,17
915,74	1051,49
915,91	1014,62
916,09	1027,50
916,26	1061,14
916,44	1079,28
916,62	978,34
916,79	1029,84
916,97	1046,80
917,14	1043,88
917,32	984,78
917,49	1006,14
917,67	1064,07
917,85	1089,23
918,02	1009,65
918,20	1073,43
918,37	1138,09
918,55	1137,50
918,72	1070,21
918,90	1069,33
919,07	1133,40
919,25	1117,61
919,42	1033,64
919,60	1040,95
919,78	1094,20
919,95	1096,54
920,13	1026,91
920,30	1011,70
920,48	1098,30
920,65	1115,27
920,83	1037,44
921,00	1064,07
921,18	1112,92
921,35	1126,68
921,53	1060,56
921,70	1042,42
921,88	1079,28
922,05	1087,47
922,23	1019,01
922,40	1014,62
922,58	1055,00
922,75	1070,80
922,93	1007,02
923,10	1015,79
923,28	1055,87
923,45	1042,71
923,63	995,31
923,80	1019,30
923,98	1081,91
924,15	1092,74
924,33	1038,61
924,50	1043,00
924,68	1103,56
924,85	1100,34
925,03	1027,79
925,20	1015,50
925,38	1093,03
925,55	1093,32
925,73	1045,34
925,90	1047,97
926,08	1134,87
926,25	1141,01
926,43	1072,55
926,60	1062,60
926,78	1102,98
926,95	1111,17
927,13	1047,39
927,30	1017,84
927,48	1084,55
927,65	1085,72
927,83	1022,52
928,00	1034,81
928,17	1096,83
928,35	1101,51
928,52	1053,53
928,70	1033,05
928,87	1114,39
929,05	1103,27
929,22	1047,10
929,40	1058,51
929,57	1115,27
929,74	1103,27
929,92	1054,70
930,09	1052,36
930,27	1141,89
930,44	1140,43
930,62	1051,78
930,79	1050,90
930,97	1143,94
931,14	1139,26
931,31	1075,77
931,49	1043,29
931,66	1055,00
931,84	1062,02
932,01	1007,31
932,18	979,81
932,36	1055,87
932,53	1052,66
932,71	1010,82
932,88	1087,18
933,06	1135,74
933,23	1135,74
933,40	1073,72
933,58	1047,97
933,75	1100,05
933,93	1083,08
934,10	1000,29
934,27	1043,88
934,45	1077,23
934,62	1080,74
934,80	1025,74
934,97	1035,98
935,14	1113,22
935,32	1104,73
935,49	1011,99
935,66	1048,56
935,84	1127,55
936,01	1129,60
936,19	1055,87
936,36	1051,19
936,53	1127,85
936,71	1130,19
936,88	1065,53
937,05	1056,46
937,23	1103,27
937,40	1103,56
937,58	1033,93
937,75	1057,92
937,92	1110,00
938,10	1113,51
938,27	1047,68
938,44	1066,11
938,62	1138,67
938,79	1141,89
938,96	1042,12
939,14	1014,04
939,31	1056,46
939,48	1062,31
939,66	1005,85
939,83	973,66
940,01	1052,36
940,18	1048,85
940,35	1034,22
940,53	1030,71
940,70	1093,32
940,87	1081,03
941,05	1044,17
941,22	1033,64
941,39	1096,54
941,56	1090,10
941,74	1038,32
941,91	1066,41
942,08	1133,99
942,26	1135,16
942,43	1057,63
942,60	1107,07
942,78	1136,33
942,95	1133,99
943,12	1045,63
943,30	1026,91
943,47	1111,75
943,64	1131,36
943,82	1023,11
943,99	1011,40
944,16	1073,72
944,33	1076,65
944,51	1038,61
944,68	1013,45
944,85	1036,86
945,03	1027,50
945,20	1000,87
945,37	1015,21
945,54	1067,28
945,72	1052,36
945,89	994,14
946,06	1040,37
946,24	1090,40
946,41	1105,90
946,58	1023,98
946,75	1028,08
946,93	1114,39
947,10	1110,00
947,27	1035,10
947,44	1066,99
947,62	1089,81
947,79	1112,63
947,96	1059,38
948,14	1024,86
948,31	1103,56
948,48	1081,03
948,65	1003,50
948,83	1070,21
949,00	1086,59
949,17	1063,19
949,34	1017,84
949,52	997,65
949,69	1094,49
949,86	1096,25
950,03	998,24
950,20	1068,45
950,38	1192,21
950,55	1201,57
950,72	1139,26
950,89	1121,70
951,07	1181,97
951,24	1165,88
951,41	1070,80
951,58	1003,21
951,76	1098,00
951,93	1102,39
952,10	1038,03
952,27	1036,86
952,44	1091,27
952,62	1089,81
952,79	1036,56
952,96	992,97
953,13	1035,10
953,30	1028,67
953,48	966,64
953,65	984,78
953,82	1047,39
953,99	1052,66
954,16	994,73
954,34	986,83
954,51	1069,33
954,68	1069,04
954,85	1004,67
955,02	1042,12
955,20	1074,89
955,37	1069,92
955,54	1045,63
955,71	1045,05
955,88	1119,95
956,06	1123,75
956,23	1020,18
956,40	1031,59
956,57	1123,75
956,74	1116,14
956,91	1028,67
957,09	1029,54
957,26	1110,29
957,43	1117,61
957,60	1078,69
957,77	1097,42
957,94	1155,05
958,12	1164,42
958,29	1086,30
958,46	1057,92
958,63	1150,08
958,80	1144,23
958,97	1036,56
959,14	1046,22
959,32	1088,64
959,49	1099,17
959,66	1043,59
959,83	1044,76
960,00	1109,41
960,17	1113,51
960,34	1026,32
960,52	1055,58
960,69	1114,97
960,86	1118,48
961,03	1014,91
961,20	988,58
961,37	1050,61
961,54	1064,65
961,71	1008,77
961,89	1008,77
962,06	1071,97
962,23	1071,97
962,40	1024,57
962,57	1065,53
962,74	1142,77
962,91	1133,99
963,08	1065,24
963,25	1085,13
963,43	1150,08
963,60	1159,15
963,77	1046,22
963,94	1021,06
964,11	1086,59
964,28	1104,15
964,45	1031,30
964,62	1049,44
964,79	1131,94
964,96	1132,53
965,13	1088,06
965,31	1119,07
965,48	1156,22
965,65	1136,04
965,82	1053,24
965,99	1057,63
966,16	1126,68
966,33	1107,95
966,50	1004,97
966,67	1046,51
966,84	1107,07
967,01	1112,63
967,18	1026,32
967,35	1044,46
967,52	1136,33
967,70	1138,96
967,87	1050,32
968,04	1041,25
968,21	1136,04
968,38	1136,62
968,55	1054,12
968,72	1056,46
968,89	1134,87
969,06	1130,77
969,23	1089,81
969,40	1075,77
969,57	1159,15
969,74	1164,12
969,91	1078,40
970,08	1042,12
970,25	1128,14
970,42	1115,56
970,59	1021,35
970,76	980,10
970,93	1044,46
971,10	1045,34
971,27	1009,06
971,44	943,24
971,61	1031,59
971,78	1039,20
971,95	1008,77
972,12	1016,67
972,29	1065,24
972,46	1061,73
972,63	1031,01
972,80	1079,28
972,97	1135,74
973,14	1121,12
973,31	1041,54
973,48	1091,57
973,65	1160,03
973,82	1153,88
973,99	1028,37
974,16	1061,43
974,33	1163,25
974,50	1163,25
974,67	1058,21
974,84	1025,15
975,01	1115,85
975,18	1120,82
975,35	1031,30
975,52	1008,77
975,69	1067,28
975,86	1085,42
976,03	1037,74
976,20	1043,59
976,37	1077,52
976,54	1078,69
976,71	987,12
976,88	1043,88
977,05	1125,51
977,22	1131,36
977,39	1054,12
977,56	1076,94
977,73	1140,72
977,90	1148,03
978,07	1026,91
978,24	995,31
978,41	1027,20
978,58	1031,30
978,75	968,40
978,91	954,06
979,08	1013,45
979,25	1028,96
979,42	978,34
979,59	1006,72
979,76	1096,83
979,93	1097,42
980,10	1049,44
980,27	1057,63
980,44	1123,75
980,61	1119,65
980,78	1061,73
980,95	1048,27
981,12	1111,17
981,28	1136,62
981,45	1075,18
981,62	1046,51
981,79	1088,06
981,96	1098,88
982,13	1016,38
982,30	1066,41
982,47	1098,00
982,64	1106,49
982,81	1059,68
982,97	1084,84
983,14	1154,47
983,31	1158,57
983,48	1031,88
983,65	1046,22
983,82	1135,45
983,99	1147,16
984,16	1076,06
984,33	1048,85
984,49	1145,40
984,66	1160,32
984,83	1086,89
985,00	1059,68
985,17	1110,88
985,34	1122,58
985,51	1071,97
985,68	1003,50
985,84	1078,99
986,01	1069,62
986,18	1002,04
986,35	1023,40
986,52	1086,59
986,69	1088,64
986,86	1060,26
987,03	1069,33
987,19	1129,31
987,36	1120,53
987,53	1056,46
987,70	1061,43
987,87	1120,82
988,04	1118,78
988,20	1046,22
988,37	1068,16
988,54	1143,64
988,71	1151,84
988,88	1073,14
989,05	1086,01
989,21	1124,33
989,38	1116,44
989,55	1031,01
989,72	1002,63
989,89	1052,36
990,06	1028,37
990,22	947,92
990,39	965,76
990,56	1032,76
990,73	1043,88
990,90	996,78
991,06	1019,01
991,23	1117,61
991,40	1103,86
991,57	1033,35
991,74	1047,97
991,91	1104,44
992,07	1089,81
992,24	992,68
992,41	985,95
992,58	1048,85
992,75	1048,56
992,91	957,28
993,08	1003,80
993,25	1095,37
993,42	1095,96
993,58	1019,30
993,75	1044,76
993,92	1141,89
994,09	1145,98
994,26	1047,68
994,42	1066,70
994,59	1112,34
994,76	1117,61
994,93	1038,03
995,09	1036,86
995,26	1136,92
995,43	1122,29
995,60	1014,62
995,76	1009,94
995,93	1086,30
996,10	1086,59
996,27	992,97
996,44	984,20
996,60	1102,98
996,77	1118,19
996,94	1066,70
997,11	1074,89
997,27	1128,14
997,44	1123,46
997,61	1020,77
997,77	968,69
997,94	1053,53
998,11	1044,46
998,28	951,72
998,44	988,58
998,61	1062,31
998,78	1056,17
998,95	989,75
999,11	1001,46
999,28	1068,75
999,45	1079,57
999,61	990,63
999,78	1008,48
999,95	1113,51
1000,12	1123,75
1000,28	1023,69
1000,45	1050,61
1000,62	1096,25
1000,78	1086,89
1000,95	1001,16
1001,12	957,57
1001,29	1036,27
1001,45	1043,88
1001,62	968,10
1001,79	1011,40
1001,95	1075,77
1002,12	1083,67
1002,29	1032,76
1002,45	1043,00
1002,62	1105,61
1002,79	1101,51
1002,96	1011,70
1003,12	1067,28
1003,29	1121,99
1003,46	1122,87
1003,62	1040,37
1003,79	1050,02
1003,96	1123,75
1004,12	1124,04
1004,29	1000,58
1004,46	1004,09
1004,62	1055,29
1004,79	1051,19
1004,96	966,06
1005,12	999,41
1005,29	1063,77
1005,46	1093,91
1005,62	1022,52
1005,79	1008,77
1005,95	1074,60
1006,12	1085,13
1006,29	977,76
1006,45	966,06
1006,62	1032,18
1006,79	1042,71
1006,95	1004,97
1007,12	1035,10
1007,29	1109,41
1007,45	1112,63
1007,62	1064,65
1007,79	1046,80
1007,95	1083,08
1008,12	1086,01
1008,28	981,85
1008,45	988,88
1008,62	1075,48
1008,78	1085,72
1008,95	1016,09
1009,11	1061,14
1009,28	1128,43
1009,45	1131,36
1009,61	1050,02
1009,78	1008,48
1009,95	1090,40
1010,11	1103,56
1010,28	1017,26
1010,44	996,19
1010,61	1059,97
1010,78	1047,39
1010,94	1003,21
1011,11	953,18
1011,27	985,95
1011,44	989,17
1011,61	942,36
1011,77	939,43
1011,94	1009,36
1012,10	1004,38
1012,27	963,72
1012,43	955,82
1012,60	999,12
1012,77	985,07
1012,93	938,55
1013,10	954,94
1013,26	1013,45
1013,43	1003,21
1013,59	972,49
1013,76	1038,03
1013,93	1107,07
1014,09	1092,15
1014,26	1004,67
1014,42	1051,78
1014,59	1124,92
1014,75	1112,34
1014,92	1003,21
1015,08	1028,08
1015,25	1098,30
1015,42	1100,34
1015,58	1000,87
1015,75	993,26
1015,91	1090,98
1016,08	1093,91
1016,24	1016,38
1016,41	993,26
1016,57	1042,12
1016,74	1021,35
1016,90	958,45
1017,07	955,82
1017,23	1052,36
1017,40	1047,39
1017,56	1006,14
1017,73	1058,80
1017,90	1124,04
1018,06	1127,85
1018,23	1028,37
1018,39	986,83
1018,56	1064,36
1018,72	1065,82
1018,89	974,25
1019,05	1022,52
1019,22	1071,97
1019,38	1082,21
1019,55	1031,88
1019,71	1011,40
1019,88	1104,44
1020,04	1093,91
1020,21	999,70
1020,37	1022,23
1020,54	1094,20
1020,70	1076,94
1020,87	1027,79
1021,03	999,99
1021,19	1069,04
1021,36	1072,55
1021,52	995,61
1021,69	970,15
1021,85	1053,83
1022,02	1043,88
1022,18	964,01
1022,35	995,31
1022,51	1058,51
1022,68	1066,41
1022,84	1035,10
1023,01	987,71
1023,17	1055,58
1023,34	1060,85
1023,50	964,01
1023,66	974,54
1023,83	1084,84
1023,99	1070,21
1024,16	1049,73
1024,32	1093,03
1024,49	1179,34
1024,65	1173,78
1024,82	1093,32
1024,98	1079,86
1025,15	1178,17
1025,31	1171,15
1025,47	1066,41
1025,64	1032,18
1025,80	1131,36
1025,97	1149,79
1026,13	1048,27
1026,30	1035,69
1026,46	1086,01
1026,62	1069,04
1026,79	1011,99
1026,95	972,20
1027,12	1019,01
1027,28	1019,30
1027,44	948,21
1027,61	979,22
1027,77	1123,75
1027,94	1124,63
1028,10	1074,89
1028,26	1102,98
1028,43	1124,33
1028,59	1117,31
1028,76	1032,47
1028,92	969,57
1029,08	1071,09
1029,25	1071,97
1029,41	969,57
1029,58	1014,04
1029,74	1053,83
1029,90	1053,83
1030,07	988,58
1030,23	985,95
1030,40	1073,72
1030,56	1085,42
1030,72	1014,91
1030,89	1046,22
1031,05	1114,68
1031,21	1111,17
1031,38	1018,43
1031,54	1031,01
1031,70	1094,79
1031,87	1095,66
1032,03	1019,01
1032,20	1057,92
1032,36	1137,50
1032,52	1137,79
1032,69	1031,88
1032,85	1021,64
1033,01	1149,50
1033,18	1143,94
1033,34	1049,44
1033,50	1045,05
1033,67	1120,82
1033,83	1137,21
1033,99	1084,84
1034,16	1034,22
1034,32	1129,02
1034,48	1124,04
1034,65	1048,27
1034,81	1066,99
1034,97	1118,48
1035,14	1120,24
1035,30	1035,39
1035,46	1091,27
1035,63	1176,41
1035,79	1172,02
1035,95	1073,14
1036,12	1046,22
1036,28	1096,54
1036,44	1103,56
1036,60	963,72
1036,77	956,11
1036,93	1043,59
1037,09	1041,83
1037,26	999,99
1037,42	1042,12
1037,58	1143,94
1037,75	1146,57
1037,91	1058,21
1038,07	1027,20
1038,23	1099,17
1038,40	1101,81
1038,56	1002,33
1038,72	967,81
1038,89	1029,25
1039,05	1032,47
1039,21	986,83
1039,37	985,37
1039,54	1062,31
1039,70	1069,92
1039,86	995,31
1040,03	1026,62
1040,19	1060,56
1040,35	1050,61
1040,51	984,49
1040,68	956,99
1040,84	1010,82
1041,00	1007,31
1041,16	897,60
1041,33	961,08
1041,49	1013,74
1041,65	1015,79
1041,81	971,32
1041,98	961,96
1042,14	1039,20
1042,30	1049,15
1042,46	947,33
1042,63	993,85
1042,79	1030,42
1042,95	1028,37
1043,11	981,85
1043,27	996,48
1043,44	806,90
1043,60	821,24
1043,76	1345,52
>>>>>End Processed Spectral Data<<<<<
